EMG Value
57993
57993
-2817
691
3211
6627
7484
7484
7484
7484
7484
4405
-1890
58007
58007
58011
58007
-7511
-2762
666
3262
6719
7484
7484
7484
7484
7484
4320
-1883
57989
58000
57989
58007
58015
-2773
706
3185
6664
7484
7484
7484
7484
7484
4386
-1887
58007
58007
58011
58018
58007
-2791
655
3171
6631
7484
7484
7484
7484
7484
4397
-1846
58007
58000
58007
57996
58015
-2868
706
3211
6664
7484
7484
7484
7484
7484
4456
-1773
58004
58007
57996
57993
57993
-2842
629
3185
6660
7484
7484
7484
7484
7484
4364
-1769
58015
58022
58018
-7511
58018
-2828
618
3116
6657
7484
7484
7484
7484
7484
4331
-1682
58004
57993
58007
57993
58007
-2853
673
3174
6624
7484
7484
7484
7484
7484
4500
-1630
57993
58018
58007
58011
58018
-2842
611
3101
6554
7484
7484
7484
7484
7484
4368
-1718
58011
58011
-7511
58022
58004
-2809
578
3061
6455
7484
7484
7484
7484
7484
4309
-1616
-7511
57993
58018
58000
58007
-2828
614
3035
6426
7484
7484
7484
7484
7484
4331
-1630
58011
58000
57996
58000
58015
-2850
673
2987
6243
7484
7484
7484
7484
7484
4247
-1520
58015
58004
58000
58018
58022
-2795
497
2874
6023
7484
7484
7484
7484
7484
4134
-1447
58000
58011
58004
58011
58015
-2513
1167
3819
7107
7484
7484
7484
7484
7484
7484
7484
7484
7484
7484
7484
7484
7484
7484
7484
7484
7484
7484
7484
7484
7484
7484
7484
7397
4276
2874
1995
3694
7484
7484
7484
7484
7484
7484
7484
7484
7484
7484
7484
7484
7484
7484
7484
7484
7484
7484
7484
7484
7484
7484
7484
7484
7484
6627
1702
-5446
-7508
58000
57996
57985
-3564
-367
2731
6177
7393
6844
6254
6811
4178
1113
-2004
-6779
58018
58015
-6761
-5102
-480
3266
6649
7484
7484
7484
7484
7484
7484
7484
7484
7484
7484
7484
7484
6565
3280
1654
-63
-3146
-5472
-7457
58015
58011
-6827
-3293
1145
7484
7484
7484
7484
2482
-1169
-3091
-4725
-7358
58015
57993
58007
58011
-6896
-3487
395
7484
7484
7484
6928
1940
-1751
-3882
-5457
58018
58018
58011
58007
58011
57996
-4527
-1041
5683
7484
7484
6001
1394
-1839
-3524
-4673
-6534
58018
58011
58022
58007
-6138
-2524
1263
7484
7484
7484
7484
3841
658
-986
-1989
-3948
-5578
-7072
-7266
-7504
-6530
-3926
-1323
3606
5316
5075
3764
116
-2458
-3721
-4611
-6252
-7435
58011
57989
58007
-6537
-4000
-1579
2786
4449
4273
3204
219
-1971
-3029
-3718
-4922
-5670
-6362
-6193
-6977
-5025
-2703
-499
3204
4467
4401
3368
820
-1000
-1854
-2425
-3319
-3956
-4490
-4366
-4977
-3392
-1623
21
2925
3881
3735
3017
1109
-308
-986
-1444
-2150
-2711
-3128
-3051
-3557
-2458
-1169
10
2024
2775
2859
2347
1080
248
-125
-484
-792
-1004
-1147
-788
-1030
-495
131
699
1761
2035
2013
1746
856
263
-59
-220
-557
-832
-1041
-993
-1217
-1000
-495
-92
475
893
1427
1545
1691
2995
7389
7484
-2037
58011
58000
58007
58011
57993
58018
57993
58015
58022
57993
58018
58018
57993
58011
58018
58000
58004
-6054
7484
7484
7484
7484
7484
7484
7484
7484
7484
7484
7484
7484
7484
7484
7484
7484
5349
3031
1453
219
-865
-1693
-2092
-2051
-2037
-2275
-2451
-2484
-2670
-2835
-3421
-3926
-4139
-4439
-4879
-5435
-5490
-4955
-4175
-4234
-4553
-6296
58011
-6490
-5472
-4944
-4769
-2645
-2231
-2700
-4066
-4666
58015
58011
57989
58007
57993
-6896
-5494
-4575
-3520
-2667
-1517
3643
3555
5811
4320
450
896
406
-978
2680
3537
6367
7484
7484
7484
7484
5771
4119
1698
-1319
-3897
-4772
-2949
-836
1493
1750
1010
541
325
838
578
-81
-1132
-1495
-1780
-2077
-323
3009
5569
3833
625
-3209
-4875
-5263
-5054
-2930
-3289
-3868
-3498
-2337
-268
1087
204
-997
-814
-4
600
1065
2445
2295
2837
2120
1893
1841
1805
1904
1936
1772
1860
2185
2398
2486
2738
3225
4471
5536
5785
5467
4218
3167
2625
2156
1633
1230
1014
1215
1508
1651
1790
1827
1673
336
-382
-565
-656
-671
-620
-510
-513
-510
-638
-865
-949
-854
-803
-510
-92
285
582
823
1080
1354
1680
2061
2431
3017
3764
4145
3811
3130
2651
2372
2771
3742
4796
5686
7455
7484
7484
7484
7484
7484
7484
7484
7484
7484
7484
7484
7484
7484
7484
7484
7484
7484
7484
7484
7484
7484
7484
7484
7484
7484
7484
7484
7484
7484
7484
7484
7484
7484
7484
7484
7484
7484
7484
7484
7484
7484
7484
7484
7422
7484
7484
7484
7484
6668
6129
6909
5961
6056
5869
5375
4328
4800
4540
607
-1546
-2560
-2476
-2652
-2612
-2927
-3059
-3051
-3923
-3549
-4003
-4527
-4879
-5505
-5981
-6354
-6706
-6885
-5930
-6468
-6728
-6915
-6995
57993
58004
58004
58000
58004
58004
58022
58011
58000
57989
58015
58015
-6999
-6439
-5922
-5867
-5420
-5259
-4966
-4937
-4399
-3773
-3520
-3073
-3132
-3454
-3575
-3524
-3315
-3048
-2593
-1945
-1726
-1462
-1279
-1389
-1385
-1125
-59
-411
-982
-1352
-1447
-1414
-1575
-1561
-1407
-1202
-898
-231
2215
5093
7481
7484
7484
7484
7484
7484
7484
5961
1585
-1011
-2147
-1206
-209
-144
307
453
585
398
435
831
1457
1841
1680
1658
2207
2647
2577
2874
3160
3328
3149
3236
4130
5287
7484
7484
7484
7484
7484
7484
7455
4496
5097
5932
7484
7484
6693
5097
3918
3324
2980
2918
2684
2420
2361
2288
2017
1684
1391
1131
794
699
735
658
702
794
900
1277
1709
2332
2757
2662
2365
2035
1739
1691
1468
1285
1215
1182
1131
1072
1105
1230
1307
1405
1541
1596
1625
1644
1654
1687
1611
1574
1644
1702
1629
1640
1570
1508
1420
1318
1219
1171
1211
1724
2596
3156
3350
3280
3163
2980
2830
2727
2526
2449
2431
2369
2310
2229
2105
2006
1936
1856
1772
1680
1570
1457
1468
1438
1292
1091
842
25
-15
-1
29
215
281
292
325
285
314
281
281
398
428
424
486
523
512
523
519
541
494
461
424
395
446
655
768
889
984
944
973
1025
977
1065
1094
1116
1153
1226
1365
1515
1647
1735
1867
1838
1808
1940
2109
2164
2109
2131
2054
1797
1676
1600
1596
1600
1490
1383
1314
1244
1156
1160
1105
1171
1215
1314
1530
1757
1860
1845
1794
1731
1852
1907
1845
1801
1827
1827
1852
1878
1819
1794
1808
1955
2292
2427
2456
2365
2277
2087
1907
1702
1636
1413
1314
1131
940
790
662
541
486
417
325
281
267
245
274
292
292
296
311
322
340
669
794
798
750
677
527
435
307
285
201
124
47
10
-74
-111
-67
-74
-45
-41
-81
-59
-41
-59
-12
25
58
105
109
127
193
201
186
270
296
354
424
490
468
420
380
428
333
263
281
256
212
193
124
179
340
472
501
457
376
373
281
160
113
80
270
296
347
347
274
212
230
278
259
212
160
120
94
131
146
138
215
135
127
175
182
234
311
281
311
311
420
351
325
307
285
252
215
190
369
354
241
153
153
80
3
-8
-26
7
-23
-41
127
65
-67
-140
-67
-30
-162
-118
-89
-41
-96
-67
-78
-158
-173
-294
-338
-349
-367
-360
-290
-213
-224
-312
-250
-279
-180
-114
-162
-59
40
105
65
73
146
98
91
164
395
831
1138
1530
1951
1402
-748
-1011
2669
1314
2116
4815
6492
2306
-3128
-4754
-3505
1497
6836
4837
1841
2361
5730
6781
7484
5038
380
-2941
-3992
-4219
-4395
3815
4679
2471
2460
-129
-3450
-5464
58015
58018
57996
58004
-7511
58011
58007
-3344
2826
4511
3332
647
-1495
1138
4690
5884
4936
2068
2332
2453
1925
3105
4661
3394
2596
1742
124
-3443
-3150
-4824
-4922
-2095
-418
-1184
647
3207
7455
7484
6887
2376
1457
5393
7484
7261
5533
5536
7206
6975
3174
1808
2105
3376
3694
3628
3511
3833
2867
-675
-4875
58000
58018
58007
58007
58015
58018
58007
57996
58018
57993
58015
57989
58004
58015
58007
58022
58007
57989
58000
58007
57996
58004
58018
58004
58007
58004
57993
58000
57993
-7468
-6750
-6017
-5190
-4435
-3904
-3048
-2451
-2084
-1769
-1553
-1447
-1271
-1129
-872
-686
-455
-129
105
263
413
622
933
1102
1263
1515
1830
2072
2211
2453
2684
2618
2786
2716
2640
2632
2625
2658
2592
2742
2680
2709
2592
2431
1852
636
362
633
87
-1392
-1682
-543
314
765
1175
1654
1647
1332
933
589
431
311
135
-48
47
333
567
995
1574
1925
2431
2936
3295
3511
3683
3797
3874
3819
3584
3214
2771
2673
2643
2625
2643
2508
2248
1977
1907
2024
2215
2566
2270
2160
2310
2369
2445
2647
2976
2889
2742
2445
1482
428
-279
-184
-653
-1257
-1176
-770
-444
-345
-173
-48
-41
-158
-187
-184
-180
-187
-220
-268
-327
-169
-195
-429
-539
-576
-689
-660
-572
-484
-352
-396
-264
-378
-495
-587
-788
-689
-290
-253
-513
-187
73
226
340
629
713
516
318
263
343
300
219
47
-158
-279
-272
-78
124
278
329
505
929
1449
2229
2859
3636
3947
4016
4262
4295
4478
4588
4540
4683
5024
5463
5998
6324
6547
6693
6569
6507
6349
6093
5884
5723
5694
5569
5210
4921
4848
4837
4690
4408
4016
3442
3295
3343
3214
2819
2314
2035
1768
1493
1123
263
-393
-653
-755
-686
-1037
-1191
-1627
-2092
-2363
-2388
-2289
-2044
-1740
-1660
-982
245
186
208
534
1025
812
171
-557
-1147
-1213
-1154
-847
-554
-631
-781
-828
-876
-894
-755
-653
-656
-660
-539
-341
-125
54
120
296
387
512
750
896
1145
1383
1482
1424
1351
1134
995
922
918
1025
1043
966
856
629
420
248
65
-12
62
204
479
940
1318
1460
1614
1493
1358
1175
984
1006
1032
724
490
582
596
486
669
728
834
768
684
779
911
1105
1215
1285
1219
1010
970
1043
940
816
717
614
453
373
347
300
263
289
409
593
838
878
871
1072
1127
1175
1142
1123
1010
1061
907
867
838
713
746
658
512
325
109
-30
-191
-356
-319
-356
-341
-411
-407
-568
-729
-876
-1198
-1392
-1652
-2044
-2681
-2989
-3029
-3069
-3044
-2842
-2564
-2520
-2403
-2484
-2447
-2311
-2407
-2835
-3095
-3293
-3439
-3619
-3604
-3377
-3157
-2831
-2502
-2377
-2396
-2333
-2308
-2077
-2029
-1923
-1656
-1488
-1337
-949
-883
-583
-305
-297
-396
-169
-217
-147
230
651
1054
1530
2174
1464
-1304
-3406
-5538
-6102
-6102
-4600
-2857
-755
2006
6342
7484
7484
7484
7484
7484
7484
7484
7484
7484
7484
7484
7484
7484
7484
7484
7484
7484
6071
65
-4333
-6351
-7094
-6358
-6721
58007
57993
58007
58011
58007
58015
57996
57993
58018
58004
58000
58007
57993
58015
58018
57993
58011
58004
57993
58011
58022
58018
57993
58015
58018
57993
58004
58011
58015
57993
58007
-7511
58004
58015
58007
58007
58004
58007
58004
58022
58015
58011
57993
58000
57993
58004
58004
57978
58004
58007
-7028
-6329
-5563
-5040
-4567
-3860
-3209
-2513
-1986
-1447
-946
-477
91
585
1197
1662
2043
2383
2808
3236
3841
4515
5401
6466
7484
7484
7484
7484
7484
7484
7484
7484
7484
7484
7484
7484
7484
7484
7484
7484
7484
7484
7484
7484
7484
7484
7484
7206
6909
6869
6975
6756
6708
6064
5295
4767
4994
5529
5430
5159
5254
4624
3822
3533
3171
3064
1874
1724
2248
2544
2856
2625
1797
1303
1098
1874
2361
2965
3390
3654
3617
3387
3020
2515
1918
1416
933
318
-440
-1037
-1667
-2165
-2498
-2908
-3146
-3040
-3000
-2941
-3059
-2941
-3150
-3436
-3571
-3659
-3450
-3315
-3425
-3439
-3593
-3677
-3615
-3542
-3513
-3469
-3275
-3117
-2868
-2670
-2630
-2279
-1308
-883
-718
-649
-861
-773
-806
-1169
-1652
-2308
-2813
-3106
-3432
-3703
-3586
-3520
-3527
-3469
-3549
-3633
-3828
-3923
-3773
-3568
-3223
-3026
-2967
-2824
-2674
-2718
-2667
-2564
-2385
-2242
-2165
-2018
-1982
-1997
-2073
-2084
-2099
-2018
-1949
-1909
-1993
-2051
-1982
-1788
-1579
-1542
-1517
-1608
-1718
-1667
-1700
-1590
-1572
-1612
-1586
-1715
-1751
-1784
-1817
-1740
-1535
-1773
-2008
-1986
-1945
-1978
-1931
-1769
-1718
-1612
-1689
-1758
-1550
-1619
-1678
-1656
-1671
-1586
-1433
-1301
-1242
-1195
-1169
-1184
-1198
-1143
-971
-854
-880
-733
-678
-715
-718
-704
-708
-770
-850
-971
-1085
-1125
-1162
-1070
-1055
-968
-949
-872
-788
-773
-693
-557
-448
-411
-400
-341
-312
-264
-151
-136
-162
-144
-67
-34
-19
43
102
65
-12
-12
-15
91
131
73
116
182
171
171
43
-63
-151
-187
-144
-187
-283
-488
-407
-341
-264
-319
-242
-103
18
149
201
164
-133
-349
-473
-572
-708
-880
-927
-883
-920
-1088
-1202
-1374
-1447
-1422
-1422
-1286
-1187
-1246
-1206
-1070
-1066
-1077
-1055
-1044
-1107
-1520
-2165
-2597
-2612
-2469
-2311
-2403
-2202
-1868
-1330
-740
-81
340
805
1219
1303
1296
1383
1431
1519
1080
911
816
644
417
384
289
274
435
563
541
560
571
680
798
856
885
911
768
867
1021
1197
1281
1277
1237
1277
1362
1354
1464
1376
1098
951
750
1123
1698
1914
1695
1731
2328
1537
636
527
424
435
2002
3280
4427
5782
7371
6789
5983
5910
6078
5071
4287
3815
3442
3068
2636
2548
2592
2508
2808
2647
2284
1995
1676
1706
1537
1552
1801
1955
2087
2372
2347
2343
2284
1545
926
717
358
-96
-2044
-3436
-3747
-3860
-5054
-5395
-5384
-4879
-4267
-4619
-5853
-6970
-7504
58004
-6911
-6570
-7090
-7028
-6391
-6138
-6175
-6321
-6296
-6193
-5973
-5552
-5080
-4604
-4293
-3985
-3806
-3655
-3582
-3546
-3271
-3059
-2842
-2725
-2637
-2480
-2326
-2136
-1938
-1733
-1539
-927
-246
-15
138
248
168
325
600
600
538
464
486
556
728
1061
1373
1504
1567
1761
2185
2709
3299
3669
4368
5221
6155
6752
7089
7484
7484
7484
7301
6983
6657
6543
6408
6239
6023
5888
5708
5478
4961
4789
4917
4720
4672
4672
4452
3991
3507
2856
2464
2240
1991
1669
1230
772
468
468
439
-1
-708
-473
384
1233
1863
1794
1325
1435
1501
1252
1017
1021
1145
973
1307
1416
1457
1490
1325
2035
2464
1226
486
658
721
651
490
380
333
160
76
-48
-52
-565
-1447
-2084
-2593
-3132
-3480
-3417
-2945
-1828
-792
21
446
483
567
376
-187
-1506
-1363
-605
146
607
790
1259
1805
2094
2270
2207
2065
1896
1783
1658
1665
1684
1698
1753
1834
1669
1493
1131
1050
1123
1222
1252
1332
1358
1365
1105
516
65
-140
-70
160
340
230
336
486
516
523
527
666
662
655
571
541
512
479
475
420
340
212
168
219
259
138
105
131
-15
-56
-242
-378
-323
-385
-426
-433
-590
-535
-433
-484
-488
-469
-528
-385
-400
-513
-411
-422
-484
-722
-821
-693
-594
-594
-546
-480
-426
-411
-367
-305
-356
-473
-664
-989
-1348
-1813
-2231
-2399
-2557
-2656
-2593
-2542
-2407
-2469
-2568
-2476
-2297
-2216
-2114
-2033
-1923
-1773
-1623
-1433
-1224
-1015
-726
-458
-220
-48
51
230
402
523
593
574
574
691
640
625
578
560
523
501
457
365
435
431
292
171
65
-15
-34
-15
-52
-74
-89
-26
-81
-89
-103
-41
-23
127
171
245
285
263
186
116
-15
-4
-74
-67
-63
-15
-74
-89
-96
-23
-12
-74
-187
-173
-198
-206
-173
-155
-158
-213
-224
-294
-316
-290
-393
-356
-363
-396
-327
-297
-360
-356
-345
-349
-356
-349
-389
-352
-319
-147
-228
-305
-382
-451
-557
-576
-510
-437
-440
-462
-499
-426
-404
-448
-305
-367
-334
-209
-184
-286
-433
-422
-495
-360
-330
-480
-440
-356
-466
-440
-418
-462
-510
-305
-440
-550
-715
-686
-550
-363
-239
-133
94
289
289
-535
-1198
-1418
-1638
-1707
-1682
-1572
-1575
-1634
-1638
-1173
-1619
-2092
-2051
-1916
-1887
-1744
-1762
-1733
-1715
-1645
-1612
-1575
-1506
-1546
-1524
-1348
-902
-664
-631
-598
-817
-711
-642
-499
-451
-590
-686
-836
-788
-495
-609
-598
-579
-451
-352
-382
-546
-660
-678
-880
-883
-803
-554
-627
-693
-740
-729
-609
-209
94
296
384
523
838
1043
1578
1622
1464
1482
863
717
468
453
512
285
1640
2332
2530
3870
5148
5247
4749
4328
3570
2687
1977
1219
358
-107
-491
-1081
-1821
-2377
-2667
-2817
-2784
-2579
-2432
-2139
-1857
-1700
-1506
-1279
-1059
-839
-638
-473
-349
-264
-155
-52
18
94
175
204
219
311
406
453
567
728
889
1094
1270
1435
1559
1592
1691
1702
1680
1790
1830
1896
2072
2174
2240
2361
2592
2922
3302
3804
4233
4507
4529
4372
4181
4093
3921
3577
3167
2530
2621
2984
2867
2328
1893
1702
1493
1340
1102
1083
1120
1142
1303
1281
1578
1394
1153
853
863
1102
1120
900
1123
1581
1702
1783
1911
1969
1717
1526
1255
1025
1010
1171
1936
2273
1783
827
424
508
860
834
527
223
116
21
417
699
732
721
790
1116
-118
-1063
-828
-733
-847
-1085
-1213
-1242
-1242
-1374
-1202
-1107
-1447
-1788
-2110
-2597
-3308
-4249
-4769
-4824
-4893
-4732
-4348
-3762
-2799
-1608
-521
164
560
874
977
937
893
874
274
-631
-1257
-2011
-2916
-3048
-2963
-2967
-3051
-3146
-3201
-3271
-3392
-3633
-4058
-4703
-5472
-5552
-5417
-5431
-5475
-5377
-5252
-5259
-5117
-4761
-4344
-4014
-3652
-3084
-2257
-1762
-1484
-953
-433
153
717
1098
1303
1189
1010
951
1083
1277
1391
1475
1574
1640
1775
1709
1644
1746
1779
1816
1812
1753
1713
1633
1640
1589
1537
1545
1497
1482
1449
1387
1343
1340
1318
1285
1259
1255
1274
1299
1442
1614
1786
2050
2303
2405
2489
2574
2577
2456
2343
2229
2032
1783
1750
1618
1471
1340
1127
-561
-2136
-3004
-3388
-3487
-3509
-3465
-3399
-3245
-2985
-2788
-2597
-2414
-2183
-1927
-1649
-1590
-1535
-1462
-1330
-1242
-1154
-1077
-924
-909
-854
-722
-671
-576
-385
-312
-264
-484
-715
-1217
-1623
-1975
-2088
-2026
-1901
-1740
-1524
-1422
-1187
-1015
-971
-1011
-946
-924
-894
-825
-1019
-1158
-1169
-1268
-1378
-1469
-1619
-1799
-1956
-2147
-2473
-2769
-3073
-3370
-3586
-3736
-3828
-3985
-4249
-4340
-4483
-4516
-4494
-4501
-4395
-4494
-4655
-4750
-4944
-5054
-5168
-5391
-5523
-5571
-5582
-5508
-5549
-5406
-5270
-4981
-4747
-4498
-3579
-3967
-4139
-4080
-3743
-2960
-2952
-3428
-3740
-3392
-2908
-2268
-2172
-2553
-2539
-2593
-3051
-2597
-2894
-3703
-3835
-3000
-3319
-4827
-4611
-4047
-3945
-4490
-3941
-4099
-5025
-4681
-3439
-2059
-3187
-4516
-4066
-3795
-3674
-3282
-2718
-3073
-3333
-3022
-2784
-2612
-2564
-2458
-2202
-1513
-909
-1290
-1634
-1546
-1726
-1795
-1832
-2059
-2311
-2967
-3765
-4296
-4406
-4322
-4055
-3820
-3677
-3688
-3707
-3447
-3297
-2850
-2729
-2502
-2198
-2070
-1953
-1700
-1506
-1158
-1235
-1495
-1612
-1623
-1264
-957
-997
-1912
-2172
-788
384
699
1607
2116
2211
2072
893
98
-451
-1396
-1997
-2407
-2967
-3813
-4120
-4630
-5285
-5743
-6131
-6373
-6340
-6120
-5856
-5659
-5541
-5424
-5190
-4952
-4564
-4197
-3857
-3410
-2707
-2081
-1528
-986
-462
-48
431
750
1145
1537
1830
2321
2618
2793
3064
3236
3588
4178
4870
5705
6243
6261
6488
6375
6107
6034
5811
5891
5910
5906
5771
5734
5555
5419
5284
4980
4643
4412
4379
4533
4643
4903
4577
4390
4130
3738
3204
2413
1720
1167
889
896
867
713
486
494
636
765
702
658
816
805
710
809
999
1080
893
717
827
867
647
362
-250
-426
-440
-576
-784
-645
-437
-631
-711
-777
-1048
-1066
-1235
-1312
-1367
-1396
-1495
-1440
-1118
-1008
-997
-1088
-1242
-1444
-1619
-1641
-1546
-1385
-1118
-920
-880
-773
-766
-653
-528
-257
-92
-169
-52
94
252
292
245
-23
-158
-242
-448
-356
-294
102
-433
-1129
-1147
-1081
-1004
-931
-792
-554
-261
-67
-144
-612
-1019
-1224
-1330
-1264
-1074
-993
-924
-949
-1015
-1044
-1114
-1180
-1217
-1242
-1132
-1143
-554
-385
-1359
-1682
-1348
-1118
-975
-1022
-1092
-1030
-836
-740
-715
-847
-1011
-1011
-821
-638
-382
-140
-173
-133
-140
-12
-4
-81
-338
-469
-426
-513
-546
-583
-686
-722
-645
-598
-751
-737
-718
-704
-704
-766
-887
-861
-883
-978
-887
-920
-927
-891
-839
-836
-799
-773
-799
-795
-927
-784
-686
-777
-803
-784
-704
-609
-612
-572
-418
-279
-67
146
314
479
530
472
497
486
508
365
354
296
256
186
102
289
318
248
237
226
226
226
237
215
300
365
365
380
358
384
362
354
420
483
516
428
435
424
358
406
417
347
311
307
373
464
497
534
545
409
409
409
395
435
398
373
424
395
402
398
256
120
124
256
175
120
168
215
76
157
149
102
47
102
3
-4
-59
-34
-30
-125
18
138
131
146
131
208
186
201
164
40
73
138
146
127
164
193
182
127
164
135
62
618
289
-290
-327
-257
-231
-140
-111
-122
-144
-144
-147
-147
-180
-96
-279
-499
-253
-217
-173
-147
43
105
-166
21
149
263
461
578
644
538
365
417
655
666
614
373
29
-118
-184
-268
-400
-642
-850
-989
-960
-989
-1246
-1524
-1660
-1861
-1879
-1813
-1795
-1737
-1766
-1641
-1462
-1238
-1180
-1096
-1011
-773
-466
-426
-305
-23
91
-173
-458
-579
-645
-1195
-1202
-616
-393
-477
-686
-960
-1550
-1810
-1835
-1986
-2271
-1788
-1458
-1704
-1883
-1953
-1824
-1422
-671
523
757
76
-616
-880
-1260
-1319
-1308
-1370
-1370
-1462
-1363
-1271
-1403
-1447
-1103
102
-257
-78
-191
-448
-909
-1455
-1813
-2103
-2220
-2128
-2037
-1960
-1887
-1802
-1652
-1557
-1403
-1202
-913
-678
-579
-609
-620
-623
-598
-488
-389
-297
-224
-231
-195
-133
-26
40
131
131
267
307
369
596
721
783
981
1424
1764
1962
2292
2387
2416
2413
2211
2259
3013
3485
3035
2460
1969
1651
1775
1977
2046
1691
1233
1145
948
651
508
666
516
831
1028
563
80
-187
109
73
98
54
-114
-74
-177
-206
-217
-173
-8
76
124
285
655
1314
1629
1589
1614
2211
2240
2361
2288
1805
1017
362
-133
-338
-385
-140
14
292
409
358
311
267
369
398
336
-305
-821
-953
-993
-949
-781
-675
-568
-711
-982
-825
-678
-726
-627
-550
-693
-462
-257
-371
-338
-407
-579
-748
-1008
-1195
-1293
-1374
-1520
-1447
-1400
-1363
-1253
-1249
-1217
-1535
-1846
-2103
-2187
-2008
-1861
-1846
-1605
-1363
-1158
-1279
-1238
-1132
-1110
-1011
-891
-894
-832
-689
-631
-598
-616
-524
-517
-488
-451
-396
-367
-382
-272
-209
-122
-125
-257
-224
-224
-169
-92
-70
-107
-155
-151
-253
-250
-231
-180
-136
-92
-26
-15
-92
-133
-228
-246
-206
-67
-70
-177
-169
-250
-371
-305
-283
-253
-297
-257
-334
-352
-363
-360
-382
-437
-437
-415
-341
-371
-338
-261
-268
-367
-275
-268
-209
-144
-239
-217
-319
-180
-184
-312
-279
-191
-136
-129
-129
-129
-147
-191
-125
-107
-125
-187
-228
-264
-242
-235
-195
-158
-147
-166
-111
-78
-133
-23
3
73
127
105
76
164
120
153
193
248
347
329
369
420
329
248
289
329
373
248
329
351
409
450
457
395
490
593
574
512
534
512
475
435
384
380
311
318
406
413
245
336
519
314
336
486
472
457
413
457
538
512
322
190
274
409
351
343
380
420
567
413
439
490
571
593
574
556
545
431
160
179
431
611
973
603
83
223
197
296
314
285
113
168
223
259
245
263
-48
-286
-697
-872
-784
-905
-1509
-1729
-1634
-2172
-2985
-2791
-2429
-2952
-3542
-3216
-3040
-3465
-4370
-4611
-3908
-3304
-3018
-3018
-3267
-3004
-2238
-1645
-1546
-1619
-1715
-1524
-978
278
1047
1402
1453
1695
2043
2240
2431
2581
3046
2526
2445
2581
3540
4145
4287
5291
6635
7276
7177
6518
4877
3284
834
-1788
-4263
-5351
-6541
-7013
58004
58004
58007
57993
58004
58007
-7511
58015
58018
58015
58004
58004
58007
58007
58007
58011
58000
58011
58004
58011
58011
57996
57993
58004
58007
58004
57993
57993
57993
58007
-7511
-5677
-3553
-1813
-1
1900
3376
4302
4881
5166
5397
5478
5602
5961
6477
6844
6807
6767
6840
6928
7034
6785
6455
6016
5540
4950
4606
4320
4295
4269
4211
4159
4126
3998
3797
3731
3903
4372
4720
4613
4558
4276
3855
3464
3225
2947
2753
2640
2475
2215
2120
2098
2006
2017
1889
1929
2072
1654
1552
1750
2017
1977
1808
1914
2292
3075
3705
3376
3518
4016
4013
3123
3632
4324
4496
4156
3346
3200
2896
1904
1669
2226
3009
3555
2976
2156
2013
1757
1211
915
636
-645
-1502
-1931
-2421
-2692
-2667
-2780
-2949
-2828
-2597
-2886
-3439
-3454
-3637
-3527
-3414
-3432
-3483
-3776
-3860
-3718
-3370
-3066
-2883
-2524
-2399
-2311
-2246
-2268
-2436
-2652
-2817
-2949
-2982
-2864
-2681
-2553
-2410
-2418
-2279
-2033
-1868
-1861
-1843
-1711
-1535
-1132
-565
146
955
1947
2863
3485
4079
4471
4613
4873
5009
5298
5415
5360
5309
5203
5254
5199
5152
5210
5126
4932
5056
4917
4328
4255
4265
4324
4309
4141
3822
3551
3251
2944
2742
2757
2826
2738
2691
2716
2475
1962
1904
1925
1849
1622
1471
1329
1255
1105
827
680
754
776
845
809
644
457
329
351
333
201
47
-48
-74
-103
-173
-239
-411
-378
-330
-286
-268
-144
7
-360
-415
-305
-242
-169
-118
-103
-78
-85
-63
-103
-85
-85
-100
-103
21
3
3
65
69
91
40
124
94
127
65
54
18
-70
-209
-290
-323
-524
-561
-653
-784
-869
-982
-1121
-1198
-1293
-1378
-1411
-1477
-1546
-1601
-1638
-1758
-1832
-1912
-2033
-2198
-2359
-2432
-2502
-2571
-2648
-2802
-2879
-2978
-3080
-3084
-3048
-2985
-2930
-2766
-2674
-2495
-2304
-2161
-1975
-1828
-1656
-1542
-1363
-1235
-1206
-1081
-938
-894
-784
-729
-642
-437
-301
-250
-118
-45
36
-15
47
116
171
98
105
120
142
164
146
18
105
69
40
40
14
-23
-45
-81
-144
-257
-308
-297
-371
-349
-319
-356
-341
-316
-316
-275
-330
-224
-305
-429
-594
-572
-484
-363
-367
-352
-305
-286
-213
-177
-202
-268
-312
-246
-70
-173
-268
-100
-45
54
146
14
91
197
230
248
204
215
259
281
263
248
296
263
186
160
138
69
-15
21
-45
-253
-257
-363
-579
-583
-601
-814
-1055
-1151
-1195
-1231
-1403
-1330
-1304
-1385
-1780
-2117
-2224
-2359
-2359
-2326
-2901
-3275
-3337
-3589
-3703
-3806
-3908
-4029
-4113
-4304
-4274
-4271
-4278
-4256
-4142
-4069
-3901
-3747
-3542
-3344
-3245
-3128
-2967
-2846
-2806
-2729
-2513
-2374
-2121
-1861
-1729
-1634
-1392
-1184
-1081
-946
-953
-989
-1008
-971
-803
-737
-667
-594
-660
-686
-766
-700
-598
-524
-609
-645
-598
-521
-429
-404
-426
-371
-308
-253
-118
-15
223
208
230
267
168
124
98
263
168
51
-191
-297
-129
-213
-407
-587
-770
-909
-1052
-1297
-1484
-1553
-1671
-1890
-1960
-2018
-2176
-2257
-2414
-2491
-2473
-2429
-2366
-2286
-2147
-1931
-1799
-1685
-1524
-1315
-1125
-953
-737
-572
-458
-352
-242
-191
-41
116
336
494
611
750
863
1010
1061
1153
1299
1435
1512
1625
1578
1508
1654
1552
1373
1164
1043
1080
1058
933
1208
1285
1380
1625
2174
2504
2698
2662
2684
2574
2438
2391
2035
1065
413
149
65
-78
-8
307
1618
1933
1076
1684
3105
3453
2775
2753
3566
3680
3445
3409
3083
2684
2566
2442
2391
2603
2548
1896
1471
1186
1083
831
699
618
384
398
318
-1
-187
-437
-594
-718
-612
-711
-649
-484
-568
-766
-773
-781
-682
-788
-843
-978
-1070
-971
-795
-718
-590
-502
-429
-422
-444
-396
-448
-642
-656
-480
-349
-426
-389
-393
-363
-290
-118
-96
-74
-26
-15
113
-74
-349
-726
-1088
-1293
-1249
-1096
-788
-543
-367
-294
-356
-605
-847
-1066
-1173
-1140
-924
-590
-239
58
300
424
549
571
622
673
761
970
644
160
307
644
798
754
918
878
486
215
142
479
761
999
1065
966
893
750
761
739
717
959
860
684
691
677
746
787
838
761
735
783
838
842
805
860
871
893
853
885
940
922
1014
1069
900
735
435
596
728
779
739
622
662
662
644
783
768
706
622
596
603
647
688
717
702
666
567
534
589
611
743
798
823
856
926
915
849
1014
1120
1178
1226
1314
1285
1233
1263
1277
1237
1307
1427
1545
1567
1695
1691
1698
1563
1541
1435
1285
1299
1512
1728
1882
1958
2006
2013
2013
1951
1980
2002
1980
1933
1830
1717
1592
1797
3152
3980
4258
4240
3998
3705
3467
3229
3028
2852
2768
2658
2570
2478
2409
2391
2314
2482
2607
2453
2189
1933
1900
2112
2380
2398
2442
2541
2647
2610
2544
2394
2094
1816
1706
1651
1592
1460
1340
1094
940
765
530
318
252
237
241
362
483
362
223
-23
-92
-15
-52
-30
25
25
73
146
655
1237
1607
1863
2273
2856
3244
3313
3057
2859
2603
2138
1812
1537
1244
911
541
263
116
83
73
58
131
160
252
245
354
384
259
336
369
365
362
343
380
519
549
300
-15
18
32
43
54
87
131
-45
-81
-122
98
175
127
91
138
94
29
201
157
248
340
116
120
113
179
186
292
398
530
494
395
105
105
160
307
311
179
127
193
-1
-41
-85
-78
-23
47
-96
-257
-327
-96
267
-279
-839
-1154
-1385
-1663
-2106
-2300
-2546
-3004
-3069
-3289
-3417
-3355
-3487
-3780
-4146
-4340
-4230
-4172
-4450
-4802
-5102
-5190
-5204
-5256
-5234
-4670
-5047
-5611
-5377
-4952
-4853
-4531
-4271
-4091
-3996
-4025
-3952
-3736
-3663
-3648
-3516
-3278
-3110
-2930
-2978
-3220
-3117
-2795
-2476
-2491
-2667
-3150
-3476
-3615
-3886
-4000
-3718
-3608
-3242
-3033
-3040
-3004
-3102
-3139
-3117
-2982
-2637
-2099
-1509
-894
-385
124
398
874
1123
1552
1376
1340
1907
4013
7484
7484
7484
7484
7484
7484
7484
7484
7484
7484
7484
7484
7484
7316
6730
6217
5789
5342
5078
4815
4628
4485
4189
3903
3782
3632
3475
3229
2845
2746
2735
2837
2845
2929
3031
3042
2976
2848
2808
2768
2830
2973
3017
3229
3442
3584
3775
3738
3621
3555
3650
3713
3756
4024
4273
4610
4452
4280
4027
3855
3405
3511
3064
2647
2039
1614
1830
1775
1728
1570
856
307
863
1512
2017
1790
1596
2054
2402
2237
2592
2174
1398
1449
1123
622
3
-217
-649
-942
-1110
-1184
-1301
-1649
-1791
-1488
-1282
-1363
-1528
-1129
-649
-506
-341
-147
-56
-140
-590
-1158
-1488
-2026
-2535
-2751
-2912
-2956
-2766
-2366
-2077
-1813
-1630
-1323
-1359
-1367
-1238
-1242
-1630
-1905
-1905
-1828
-1846
-1916
-1905
-1693
-1429
-1337
-1667
-1920
-1879
-1945
-1857
-1557
-1378
-1282
-1209
-1041
-825
-645
-502
-422
-510
-667
-656
-686
-686
-836
-836
-751
-777
-898
-986
-850
-686
-521
-330
-510
-850
-825
-726
-686
-634
-579
-675
-726
-762
-748
-740
-708
-601
-631
-645
-462
-653
-931
-744
-726
-777
-675
-645
-631
-627
-568
-579
-499
-858
-744
-638
-554
-554
-451
-422
-462
-502
-554
-554
-557
-550
-686
-667
-612
-612
-561
-572
-557
-488
-429
-426
-543
-433
-429
-345
-323
-363
-246
-297
-305
-217
-166
-180
-70
-70
-45
-19
32
116
105
40
-4
29
36
58
43
109
149
215
245
175
116
120
102
135
142
113
58
113
105
62
113
138
113
62
-4
-26
-129
-67
-70
-41
-111
-74
-12
-74
-56
-78
-96
-15
14
-26
-34
29
-1
-118
-45
40
47
3
-59
-15
62
25
-59
-34
-37
-198
18
171
87
-100
-41
-8
25
7
-63
-114
-173
-133
-74
10
7
-26
83
124
98
105
58
7
21
7
-23
21
135
182
208
157
135
36
14
-4
18
7
-103
-45
-103
-100
-162
-184
-231
-411
-502
-506
-411
-360
-242
179
80
-407
-744
-1268
-1568
-1755
-1890
-1960
-2029
-2037
-1942
-1824
-1813
-1780
-1616
-1594
-1359
-1334
-1242
-759
-601
-532
-605
-729
-810
-697
-528
-704
-924
-759
-455
-920
-1319
-1158
-916
-795
-766
-704
-495
-330
-297
-345
-155
-15
149
29
197
263
223
182
354
468
406
365
318
336
376
571
442
267
354
475
461
343
278
296
197
142
131
87
102
-30
-235
-484
-532
-568
-554
-422
-543
-660
-708
-704
-704
-686
-667
-729
-715
-718
-539
-444
-455
-404
-297
-206
-169
-103
-1
32
153
190
329
527
582
585
669
732
688
695
695
640
585
644
776
863
922
948
922
849
603
662
801
907
951
999
1047
1113
1208
1182
1281
1405
1512
1687
1706
1724
2160
1871
1438
1391
1244
1116
1039
995
937
783
754
842
999
1043
1120
1292
1208
1219
1274
1263
1244
1453
1863
1977
1951
2174
2636
2607
2497
2603
2391
2043
1889
1805
1907
1991
2013
2028
2588
2566
2061
984
215
889
882
684
772
871
153
-528
-341
-140
98
424
479
-301
-748
-510
-257
-70
83
380
135
-187
-319
131
732
190
-323
-147
-382
-686
-920
-795
-480
-220
-15
69
14
-195
-510
-773
-407
-246
-1769
-3721
-4864
-5494
-5724
-5534
-5208
-4904
-4871
-5201
-5377
-5384
-5102
-4875
-4373
-3860
-3644
-3428
-3168
-2795
-2802
-2912
-2905
-2857
-2451
-2191
-2128
-2004
-1685
-1583
-1469
-1385
-1356
-1345
-1440
-1583
-1491
-1224
-1008
-883
-748
-748
-916
-795
-751
-697
-770
-711
-590
-631
-502
-458
-466
-437
-543
-572
-524
-451
-448
-510
-469
-546
-517
-411
-279
-202
-166
-173
-202
-191
-166
-177
-107
14
-367
-385
-202
-239
-253
-220
-169
7
-103
-279
-155
-15
-59
-242
-198
-177
-140
-173
-187
-213
-231
-231
-191
-202
-173
-114
-162
-147
-103
-74
-74
-63
-59
-67
-74
-114
-140
-177
-67
-30
-15
-23
36
7
58
73
146
171
157
223
193
138
241
289
29
113
160
234
197
292
354
292
219
201
223
171
160
91
14
65
135
197
223
223
285
241
135
83
-15
-52
-26
-45
-30
-107
-136
-147
-177
-177
-103
-15
36
-1
-15
-30
58
54
-15
-140
-125
-74
-85
-118
-85
3
69
62
102
160
138
120
-41
-136
32
-12
-147
-125
14
-96
-195
-169
-74
-107
-147
-448
-715
-861
-1004
-1125
-1206
-1151
-1363
-1890
-2542
-3004
-3080
-3059
-3297
-3524
-3747
-3685
-4120
-4351
-4183
-4058
-3945
-3806
-3769
-3773
-3491
-3242
-3033
-2857
-2652
-2333
-2040
-1780
-1524
-1217
-733
-510
-151
160
625
981
1347
1713
2164
2456
2420
2358
2530
2680
2922
2984
2555
2207
2013
1545
1519
1625
1647
1471
1182
1175
1222
809
131
-195
417
358
83
29
18
-111
-209
164
303
135
43
380
603
508
300
369
439
461
164
-305
-371
-407
-400
-535
-660
-675
-876
-982
-887
-773
-806
-773
-777
-854
-832
-836
-891
-957
-989
-1055
-997
-850
-795
-770
-883
-942
-850
-883
-894
-751
-689
-675
-631
-532
-437
-341
-209
-290
-235
-140
-19
-107
-63
-48
-15
21
120
127
168
219
259
245
281
296
234
252
281
223
190
281
340
376
387
376
354
343
365
365
472
497
560
512
479
417
494
530
552
560
666
666
640
618
538
658
962
1142
1197
1255
1453
1468
1387
512
1347
1405
1127
732
208
-177
-341
-151
94
259
333
358
336
596
772
926
970
874
761
688
453
223
94
131
281
563
765
849
973
1098
1219
1541
1680
1860
2160
2306
1940
1475
1431
1373
1014
878
918
838
699
787
680
508
149
-70
-74
-96
-15
76
43
83
58
-52
-195
-374
-330
-290
-224
230
-275
-744
-528
-96
-129
-697
-909
-905
-806
-554
-451
142
424
-81
-59
461
721
512
409
267
409
461
486
494
574
746
918
915
845
571
369
219
62
-217
-261
-184
-78
-23
69
252
201
237
215
292
237
76
-48
-81
-96
-206
54
256
245
234
252
256
234
105
109
369
186
3
208
431
571
713
757
724
636
552
505
571
442
376
442
457
420
347
325
204
58
135
87
-15
-15
-37
-59
7
-19
43
160
234
204
69
-41
-26
25
-41
14
120
69
-34
-12
47
-15
-8
-1
-15
-26
135
164
135
149
135
168
171
208
208
186
190
160
186
168
230
208
223
281
204
164
197
193
186
212
223
164
190
102
131
160
146
212
267
193
237
160
230
285
322
354
259
318
336
307
241
208
267
292
267
289
281
226
193
157
80
43
40
65
25
-23
-37
-56
-15
32
102
146
153
179
193
347
417
398
384
333
230
190
219
160
175
160
160
160
105
113
105
-15
-81
-133
-155
-195
-166
-231
-319
-338
-250
-231
-305
-198
3
18
80
285
120
-111
-272
-191
-70
-67
-191
-294
-305
-327
-352
-850
-1154
-1315
-1173
-1308
-1070
-1337
-1513
-1583
-1795
-1934
-1868
-1806
-1843
-1854
-1846
-1813
-1769
-1766
-1685
-1345
-1015
-905
-1099
-1264
-1356
-1422
-1118
-993
-968
-876
-788
-799
-715
-656
-546
-323
-125
10
138
303
545
860
977
1021
966
820
746
750
680
724
582
501
365
296
234
113
157
135
102
124
175
204
223
343
622
589
706
794
783
948
1105
1424
1614
1845
1951
1907
1797
1746
1750
1625
1515
1486
1380
1354
1266
1054
849
680
541
424
384
270
219
259
402
413
201
69
-15
-96
-235
-444
-678
-872
-957
-971
-971
-924
-587
-327
-341
-426
-469
-451
-495
-583
-601
-631
-718
-686
-590
-510
-440
-341
-261
-166
-19
-34
-8
14
14
182
300
442
505
691
735
874
948
988
981
1116
1336
1391
1351
1186
1080
1010
1186
1351
1420
1453
1362
1380
1274
1277
1303
1288
1336
1307
1233
1178
1175
1215
933
853
757
772
962
761
556
479
527
585
757
944
1189
1241
1219
1156
1050
1076
911
933
1285
1460
999
724
1091
1310
1570
1962
2112
2200
2350
2244
1966
1468
1244
849
453
168
-81
-349
-444
-173
69
98
18
10
36
-305
-458
-433
-510
-524
-521
-393
-341
-308
-323
-147
32
73
113
-12
-23
-67
102
-312
-491
-334
-191
-111
215
538
574
508
428
582
651
688
680
717
761
728
724
739
560
292
318
417
424
585
849
1043
896
754
735
589
541
629
761
904
882
768
706
743
805
838
684
574
574
625
724
816
959
776
505
618
512
435
618
999
1138
1069
1244
1413
1515
1629
1709
1713
1636
1493
1460
1449
1354
1288
1387
1365
1490
1570
1526
1255
1442
1398
1581
1684
1658
1662
1534
1468
1380
1215
1189
1149
1003
929
907
874
768
688
640
571
578
622
593
549
527
497
534
494
530
596
556
603
633
582
574
603
585
611
512
450
420
406
402
475
457
516
574
512
512
538
523
560
563
424
468
519
468
424
464
486
508
530
538
519
483
512
541
574
607
574
512
673
680
644
787
787
768
768
783
710
636
622
527
464
380
351
270
168
65
-15
-78
-114
-92
18
105
131
164
256
263
219
336
402
413
365
333
223
281
245
307
409
369
333
369
281
263
395
362
347
325
318
354
472
402
365
354
300
204
113
10
-45
-118
-180
-85
-63
-67
10
351
237
32
-136
-264
-352
-510
-788
-1228
-1458
-1634
-1685
-1733
-1868
-2161
-2227
-2513
-3037
-3326
-3461
-3469
-3443
-3443
-3403
-3362
-3388
-3333
-3102
-2828
-2612
-2407
-2176
-1993
-1802
-1524
-1228
-924
-539
-140
197
593
1277
1936
2350
2651
2856
3002
3236
3471
3606
3669
3511
3478
3398
3204
3031
2947
3094
2892
2713
2471
2196
2006
1775
1709
1530
1380
1160
995
1083
1116
904
805
754
633
512
380
512
369
83
-12
-272
-253
-257
-385
-532
-689
-788
-836
-781
-715
-334
-334
-499
-686
-773
-902
-1066
-1151
-1070
-989
-909
-1055
-689
-111
73
146
58
-158
-169
-316
-480
-1033
-1575
-2169
-2663
-2934
-3062
-3212
-3333
-3348
-3198
-3015
-2835
-2601
-2352
-2242
-2059
-1832
-1608
-1462
-1363
-1209
-1052
-872
-693
-451
-279
-169
-34
47
164
204
322
402
512
699
805
845
874
842
801
809
904
915
922
893
849
831
805
827
885
904
944
1050
1123
1142
1215
1299
1131
820
728
695
625
691
311
263
603
684
809
680
354
-23
292
603
574
428
252
354
333
-173
-275
256
-15
-177
-253
168
977
1288
1574
2134
2493
2240
2065
1860
1383
1211
1043
545
409
402
472
431
647
713
76
-177
395
450
36
-415
-1356
-1667
-1209
-458
58
73
201
574
959
1435
1841
2273
2951
3053
3529
4005
4265
4610
4991
5111
5287
5196
4818
4460
4621
4888
4731
5024
5609
6104
6521
7041
7484
7360
7155
6964
6774
6997
6840
6770
6488
6155
5697
5316
5086
4833
4533
4233
3987
3727
3442
3277
3006
2790
2603
2427
2372
2361
2372
2259
1900
1731
1786
1772
1625
1504
1438
1398
1351
1457
1449
1376
1457
1211
937
966
1248
1186
885
838
878
900
885
823
702
717
666
633
702
874
783
589
739
735
691
706
801
772
673
706
527
450
406
461
461
505
574
655
702
658
629
614
574
549
497
534
614
691
746
863
1006
1113
1186
1255
1362
1435
1512
1552
1501
1640
1464
1153
856
702
614
505
486
428
362
365
351
351
329
300
333
340
256
182
80
29
73
73
29
175
212
237
208
314
270
314
292
278
300
289
278
278
300
307
376
318
241
212
245
204
237
252
175
149
160
153
87
47
18
102
157
164
179
43
43
73
102
105
120
94
54
3
-89
-96
-78
-191
-111
-23
-34
32
-8
54
73
62
-41
-48
-19
-8
-118
-111
-147
-118
-30
62
47
-4
-74
-209
-294
-400
-422
-393
-433
-546
-587
-598
-473
-352
-338
-323
-396
-217
-23
-48
-45
36
149
32
-74
-70
-70
-15
105
237
-48
-41
14
-92
-118
-67
-45
-4
120
201
197
76
47
-52
21
116
322
58
-202
-144
14
54
-4
83
116
105
58
51
47
54
-8
-23
-89
-30
-4
-12
-12
-52
-67
-85
-103
-103
-147
32
105
-297
-590
-579
-594
-535
-554
-667
-748
-806
-858
-909
-887
-997
-1011
-1052
-1015
-927
-825
-854
-762
-693
-697
-828
-836
-711
-583
-502
-429
-477
-557
-480
-400
-385
-491
-576
-667
-664
-605
-718
-704
-510
-396
-382
-330
-155
593
450
-649
-722
-451
-191
-100
-133
-191
-279
-308
-264
-198
-74
47
-12
-209
-275
-334
-499
-539
-543
-557
-579
-546
-469
-360
-246
-166
-81
-85
-48
-8
7
402
267
-191
-235
-184
-158
-166
-275
-305
-393
-363
-327
-367
-389
-305
-319
-524
-502
-521
-524
-415
-378
-411
-382
-338
-294
-246
-268
-187
-301
-341
-294
-316
-272
-209
-173
-100
-96
-74
-37
-59
-74
-26
-45
-45
-107
-89
-114
-220
-144
-103
-92
-74
-67
-56
-15
47
10
32
7
-15
-15
29
14
29
76
102
135
142
124
98
18
-34
-41
-37
-30
76
98
142
153
267
314
398
340
237
234
270
197
281
340
376
387
387
347
307
179
98
36
105
164
54
-1
-125
-158
-89
47
164
186
201
105
14
-180
-242
-294
-202
-15
98
311
453
512
439
325
131
32
47
223
285
424
307
-45
-177
54
230
281
325
391
439
387
354
336
347
270
204
285
354
325
263
190
241
333
417
486
453
435
376
204
230
274
413
322
153
230
274
340
278
311
351
420
442
362
336
413
439
369
336
300
314
314
406
563
666
593
453
464
516
614
655
596
629
625
728
706
629
607
585
593
633
739
783
831
834
896
911
885
878
882
805
816
805
842
779
845
871
874
816
761
750
746
603
571
563
494
424
453
387
333
351
322
351
424
468
516
582
585
523
413
380
351
468
395
347
442
424
428
402
325
347
296
358
292
347
226
230
113
62
113
73
76
234
190
365
439
402
395
380
322
256
149
-15
51
-41
-41
153
51
120
248
267
322
431
519
622
325
131
157
47
387
135
-177
138
197
109
73
-1
-45
51
131
171
62
54
80
87
105
43
47
80
76
-209
-187
-19
204
296
175
204
296
278
146
160
248
29
-45
29
-100
-136
-45
-37
40
369
193
197
351
479
365
395
336
278
21
-407
-568
-495
223
721
607
497
589
406
171
109
80
135
124
406
549
340
307
373
197
230
406
475
501
567
413
311
160
-85
-367
-275
-125
-41
32
175
-19
-162
-144
-30
47
208
395
556
545
962
970
442
98
-590
-755
-598
-491
-268
73
274
351
527
556
614
644
783
710
633
929
-81
-762
-202
270
450
746
787
688
593
585
629
625
735
391
105
-224
-649
-909
-891
-869
-616
-202
-85
29
274
541
831
505
787
688
442
245
-198
-360
-220
-81
168
263
376
442
512
497
560
556
820
574
193
-151
-616
-836
-814
-744
-572
-122
36
153
241
318
373
483
820
431
73
-158
-748
-975
-891
-836
-631
-173
58
230
274
358
457
625
882
614
179
-125
-495
-708
-931
-678
-246
-34
65
116
219
219
175
69
149
197
223
73
69
116
94
58
120
193
65
32
83
153
318
446
461
578
820
995
1233
1493
1424
1076
863
761
688
691
593
549
549
343
420
406
358
281
212
109
51
47
69
58
58
120
193
252
223
105
98
80
105
91
36
10
32
73
94
120
135
51
-1
116
186
237
223
215
223
274
281
230
153
124
116
270
190
153
146
237
274
241
278
307
245
252
237
274
365
365
442
519
431
380
603
614
614
618
571
398
274
135
212
322
307
314
256
87
14
14
10
76
149
204
234
343
450
395
376
318
289
380
373
73
-114
-433
-700
-777
-689
-675
-733
-858
-854
-795
-748
-623
-620
-572
-393
-286
-177
-56
47
94
102
98
105
47
223
248
190
226
307
402
435
464
618
966
1318
1307
1032
728
614
549
424
545
772
885
926
706
710
702
713
538
409
450
428
300
171
47
73
109
43
-231
-235
-23
29
-12
160
307
98
-118
-96
-107
83
446
402
120
131
413
-85
-338
267
197
105
83
365
457
252
193
391
420
322
131
219
54
-59
-89
281
494
215
186
281
391
270
219
131
116
146
120
204
201
219
223
223
157
116
193
267
340
560
823
1028
1047
1010
904
798
787
662
497
413
278
98
-1
3
-23
-23
-144
-169
-217
-242
-308
-308
-228
-195
-92
-34
-1
18
105
105
3
-74
-30
-30
-78
-81
-4
76
73
83
131
102
51
116
32
102
259
322
267
182
131
149
197
303
398
406
373
285
256
252
314
204
215
245
296
292
292
307
58
-70
32
10
-89
29
303
472
962
1175
1091
219
-905
-1407
-1374
-858
-301
376
1010
1625
1962
2211
2365
2402
2281
1955
1570
1288
1277
1270
1504
1662
1394
1515
1958
2043
2006
1947
1819
1772
1860
1907
2024
2372
2621
2878
3064
3035
2859
2702
2405
2156
2134
2094
2057
1958
1764
1816
1819
1449
1457
1545
1530
1321
1310
1336
944
940
1047
1142
1219
1120
1003
805
699
750
863
666
567
483
475
596
574
560
728
893
688
669
655
574
527
501
512
512
483
409
263
175
58
43
43
-12
-74
-89
-56
-92
-89
-92
-166
-242
-323
-407
-433
-437
-440
-415
-462
-477
-426
-378
-352
-312
-305
-327
-279
-246
-198
-133
-140
-19
124
223
347
252
208
190
58
-136
-89
-45
201
281
318
289
65
-4
234
190
146
190
204
292
398
497
483
501
406
314
387
442
365
409
351
329
307
289
252
215
91
-45
-100
-41
21
-37
-78
-92
76
83
-41
-15
54
65
76
32
-4
-74
-26
7
3
47
36
91
62
105
58
62
157
204
230
182
142
197
146
87
83
80
83
105
58
131
157
-103
-272
7
102
193
245
340
501
369
296
545
303
193
325
420
424
373
259
516
223
98
193
365
245
21
-228
-177
47
87
-338
-653
-404
-191
-352
-565
-448
-217
-250
-26
73
-385
-557
-330
-37
-253
-264
-264
-136
-74
18
-279
-374
-48
83
18
21
-15
-45
29
157
182
58
58
135
208
208
190
160
146
124
98
32
-30
-41
-70
-81
-92
-96
-125
-180
-180
-122
-59
105
208
296
160
7
-169
-477
-385
-279
-166
-140
-191
-268
-169
-118
-177
-100
-147
-30
-26
-85
-220
-246
-59
-85
-140
-92
-85
-125
-162
-209
-162
-144
-125
-74
-111
-92
-85
-264
-173
18
-30
-63
-15
-67
-107
-140
-125
-169
-140
-177
-140
-107
-34
-37
-100
-78
-1
-34
-41
-23
-12
10
25
29
54
87
91
102
105
83
105
109
102
113
102
76
179
149
43
51
109
105
160
204
168
120
142
131
179
105
-34
182
307
73
160
234
281
417
556
647
505
18
241
318
450
369
278
300
234
237
47
102
259
87
-162
-74
146
212
98
157
25
-4
322
204
179
336
347
417
303
420
472
439
439
464
468
461
501
541
483
314
362
453
395
395
380
380
398
376
406
365
380
384
428
424
464
501
431
322
340
241
18
-41
146
303
278
380
347
168
51
-166
-374
-312
-122
-85
-48
-19
14
-26
32
-1
-23
-67
-250
-338
-327
-184
-147
-52
-158
-242
-257
-382
-206
-191
-261
-334
-382
-374
-349
-349
-312
-279
-268
-250
-272
-264
-261
-279
-458
-213
-158
-74
-67
-166
102
237
197
237
219
164
116
120
131
223
241
241
296
325
340
311
354
311
311
281
376
343
358
296
340
343
281
245
248
215
256
402
384
267
109
252
343
376
248
219
483
516
230
300
190
278
369
311
58
365
655
629
508
300
329
263
10
-198
-209
-19
204
340
102
-19
62
91
76
18
142
248
76
-23
87
340
417
340
182
135
230
270
252
164
127
113
29
47
47
-41
-23
7
-52
7
43
146
234
292
248
259
234
204
102
87
164
245
289
329
365
494
552
483
439
234
-52
-15
113
212
270
237
204
98
-8
-147
-74
-12
65
-1
-228
-228
-180
-158
-177
-264
-330
-407
-506
-532
-513
-645
-524
-638
-883
-1059
-1008
-924
-887
-843
-810
-788
-828
-876
-1052
-1074
-1000
-1011
-784
-781
-744
-711
-631
-590
-638
-550
-587
-605
-550
-506
-378
-305
-290
-118
-67
29
168
171
146
285
135
113
193
274
296
336
333
340
398
380
475
365
193
105
204
270
252
245
413
365
91
329
479
340
303
351
208
36
65
329
365
51
226
409
248
186
80
62
40
58
274
160
-26
-253
29
73
47
7
270
252
-198
-367
-111
73
142
175
135
80
87
135
153
190
171
204
296
223
179
204
175
281
252
149
98
62
98
153
29
43
212
116
36
21
3
18
76
83
116
73
83
98
120
223
179
186
149
116
87
212
237
186
14
-147
-334
-491
-334
-147
-15
29
-30
-206
-316
-491
-686
-660
-488
-323
-177
-26
-74
-162
-235
-415
-389
-385
-367
-286
-250
-261
-103
-89
-213
-228
-177
-169
-173
-129
-169
-166
-70
-264
-440
-396
-393
-319
-264
-162
3
65
65
138
109
219
340
446
497
464
512
483
472
457
472
552
505
420
472
494
442
417
365
417
365
347
351
336
395
402
413
395
365
446
387
212
175
179
428
754
541
-12
87
384
556
669
351
135
94
248
201
179
36
-30
-96
-155
-209
-30
105
-15
-187
-316
-169
-162
-228
-158
18
-63
-257
-458
-360
-217
-56
36
175
333
457
446
384
248
62
-34
-1
43
135
190
296
292
318
333
358
336
340
307
314
351
362
369
329
322
369
380
333
281
146
25
168
402
464
278
281
201
168
153
124
116
83
3
-140
-239
-308
-360
-283
-308
-367
-319
-272
-235
-206
-89
-100
-67
-41
-34
-15
43
54
80
105
62
-12
-19
-103
-129
-158
-224
-140
-81
-129
-198
-162
-144
-129
-151
-85
-81
-89
-56
-26
3
-8
14
-74
-15
-12
-12
73
120
62
65
69
124
105
102
51
91
212
252
204
223
51
-177
-367
-440
-455
-374
-275
-283
-217
-74
190
340
278
267
311
409
329
289
380
750
636
417
424
512
765
779
593
541
585
541
483
413
252
58
190
325
230
457
380
-191
-250
120
138
-125
-213
-242
-228
-144
-202
-301
-312
-290
-308
-319
-144
-63
-162
-173
-144
-177
-67
21
-118
-250
76
160
-173
-290
10
127
54
-15
-8
-12
-59
-103
-129
-144
-136
-217
-224
-144
-133
-177
-136
-107
-15
-12
43
131
127
-23
-96
-250
-444
-301
-151
-34
-4
-23
-34
-56
-81
-155
-253
-228
-239
-275
-198
-144
-213
-345
-352
-305
-187
-155
-184
-220
-224
-239
-147
-272
-242
-279
-341
-455
-513
-437
-444
-448
-502
-576
-587
-568
-517
-499
-422
-396
-448
-349
-334
-484
-502
-455
-422
-422
-334
-283
-195
-100
-26
14
-34
-162
-206
-169
-67
-34
-12
18
-8
-15
43
65
109
160
164
160
245
160
212
256
226
135
116
43
-19
62
146
120
160
160
212
230
94
62
47
-15
-12
-74
-89
-70
-158
-206
-111
-41
-103
-151
-151
-144
-85
-56
-45
-59
-56
-34
47
120
69
105
343
571
483
483
556
574
523
424
424
402
384
347
395
395
234
47
18
113
153
179
51
-198
-217
-48
-41
-37
43
94
43
116
237
300
417
274
105
142
160
94
-15
-118
76
182
157
146
347
376
-136
-158
76
73
40
160
153
142
21
-114
25
164
175
87
-158
-144
-133
-70
-187
-184
164
149
-56
124
347
468
461
311
116
204
234
252
274
354
274
354
369
333
365
417
417
442
380
307
285
278
234
230
149
131
190
230
307
318
314
241
131
80
69
-114
-184
-103
18
69
76
105
51
-63
-103
-74
3
65
65
-217
-330
-250
-155
-81
-89
-129
-140
-129
-147
-184
-180
-169
-162
-89
-136
-191
-195
-220
-239
-184
-173
-202
-177
-140
-162
-74
-30
-67
-37
-34
29
62
135
182
127
102
91
157
197
219
270
314
300
274
311
380
336
343
347
311
292
285
267
234
300
354
325
278
311
343
362
278
223
237
204
197
193
219
237
168
135
223
204
219
307
296
69
-59
105
201
164
164
201
208
157
343
281
91
102
270
234
193
171
362
545
497
296
-286
-341
-92
-48
-92
-162
-26
76
43
-15
-15
25
-1
-48
-30
21
3
73
87
120
62
32
10
58
109
62
124
182
212
259
281
281
351
325
336
292
226
135
116
120
146
193
252
256
296
340
340
333
292
226
223
146
102
87
102
164
153
193
157
168
197
230
223
190
193
142
105
69
32
7
-30
-30
-30
-56
-59
-34
7
18
43
-15
-12
-19
-37
-52
-85
-63
-15
7
-23
-34
-12
-1
14
-15
-8
7
-12
-96
-162
-136
-187
-166
-144
-103
-107
-114
-122
-78
-34
-85
-67
-37
-15
-15
-30
-63
-92
-74
-12
-15
-23
3
-8
51
105
127
149
94
116
157
142
65
76
73
76
40
113
69
65
91
102
10
-15
58
87
69
62
47
18
-23
-4
-19
-19
-48
-15
47
102
116
109
58
91
43
47
3
14
73
58
54
153
193
223
204
105
14
-15
-15
7
-8
3
-30
-15
7
21
47
73
102
91
105
69
113
109
142
157
131
80
18
18
65
91
98
124
138
201
175
153
146
171
179
153
131
193
131
157
87
113
120
120
241
256
204
234
267
226
219
267
241
263
248
226
182
343
296
263
395
431
428
307
263
248
259
259
303
300
329
267
278
318
285
336
442
343
409
369
226
201
146
54
47
131
160
248
398
549
457
193
7
-144
-162
-15
73
234
384
505
380
164
47
-70
-198
-217
-147
-103
-15
43
73
160
193
164
113
105
76
131
113
116
212
138
142
105
164
241
325
336
420
406
391
311
124
10
21
105
234
395
373
278
241
73
80
-8
-89
-220
-250
-187
-206
-297
-400
-532
-513
-458
-363
-319
-231
-235
-169
-41
18
65
453
713
735
743
776
842
801
911
1025
1105
1156
1219
1175
1292
1292
1288
1197
1080
981
937
907
929
981
1017
1102
1138
1087
863
691
563
593
636
614
655
644
585
483
516
618
794
878
754
684
743
882
409
-290
-235
-81
3
102
208
252
245
365
354
380
501
618
658
662
303
146
58
116
105
10
-8
109
208
135
160
179
318
340
307
292
226
245
274
362
428
270
201
267
245
171
-8
-45
-12
-37
-26
237
146
-23
32
21
47
62
36
69
113
94
149
138
116
160
197
36
-23
-147
-158
-74
-30
-30
14
109
127
109
32
-23
69
105
51
54
29
124
281
376
516
684
574
428
292
325
380
365
278
373
354
398
406
420
428
446
457
343
226
54
14
43
223
329
472
589
512
380
314
248
226
256
336
237
387
311
76
-41
-12
149
160
300
226
179
43
21
-26
-12
157
234
157
105
343
614
669
439
237
153
14
-96
87
230
376
527
446
395
325
259
127
25
116
219
303
398
387
409
340
274
252
25
-12
10
36
113
263
545
494
87
-1
94
860
354
-166
7
333
292
204
274
274
486
860
706
-147
-209
-15
314
501
472
281
91
160
567
457
-579
-462
278
-111
-396
-187
43
226
226
311
395
497
475
369
417
413
523
486
398
336
7
-180
-180
-253
-169
-180
142
142
182
204
223
212
237
204
186
168
164
168
230
278
362
428
398
395
314
113
3
-30
-96
10
175
263
292
252
142
36
-15
-19
-30
-8
-19
18
54
29
14
36
36
127
7
-78
-30
-12
36
105
131
149
76
14
-34
-59
-107
-89
-96
-12
54
62
120
193
113
105
76
80
135
171
168
153
127
127
131
116
83
98
102
153
168
146
175
193
164
-15
-63
25
25
14
109
29
-59
-96
-111
-92
-8
47
51
65
65
14
-41
29
-30
-78
-166
-140
-155
-129
-92
-144
-180
-111
-136
-114
-34
69
168
245
226
234
164
-70
-202
-177
-125
47
157
164
259
263
102
-144
43
252
142
-15
-264
-396
-422
-242
-220
-48
-52
-122
-111
3
204
373
365
340
179
-140
-458
-517
-557
-686
-788
-700
-510
-301
-253
32
168
47
-85
-81
-184
-217
-239
-114
-8
-4
-59
-180
-169
-100
43
131
-30
-253
160
336
329
252
278
296
21
-191
-257
-411
-246
-213
-352
-356
-166
-92
-155
-100
-12
73
-96
-107
-305
-213
-184
-158
-129
-114
-180
-114
-78
-81
40
347
688
234
-576
-634
-532
-477
-301
325
116
-378
-352
-114
-78
-250
-301
-257
-162
-15
-4
-140
-239
-220
-144
25
-8
-114
10
-15
-444
-308
-70
-30
-147
-330
-162
-173
-253
-217
-297
149
340
248
343
208
245
457
105
-389
-645
633
1281
146
-850
-283
40
-147
-356
-334
-209
-147
190
204
62
116
219
179
80
127
135
168
270
406
387
424
505
424
384
497
614
809
746
794
779
446
351
398
424
439
149
245
307
314
384
369
369
457
87
190
219
204
94
116
398
395
329
300
329
263
197
186
204
289
245
347
248
153
153
215
160
160
201
212
164
127
51
51
113
263
281
190
109
-1
-52
-144
-100
-1
73
406
724
790
787
750
1351
3141
2555
1687
1537
2892
3496
2830
1644
801
171
120
153
278
494
647
633
607
600
633
669
585
439
387
380
402
347
340
311
208
149
311
307
329
153
-100
-158
-63
-15
51
113
186
157
-12
-23
62
116
168
131
65
164
135
179
212
182
135
58
40
80
65
168
237
186
171
153
146
47
76
62
25
87
175
124
76
-45
32
215
402
406
69
-118
-125
-12
376
571
-246
-378
-191
-74
-19
256
461
-100
-70
7
138
1248
999
-587
-814
-466
73
87
-202
-89
475
457
234
87
80
-12
-242
-191
25
-209
-484
-195
343
402
40
14
18
175
362
413
259
274
182
138
18
-169
-173
223
94
-206
18
-23
32
182
333
336
413
424
457
483
527
530
402
212
263
343
424
461
483
505
497
527
439
556
501
358
333
248
182
193
212
281
292
340
369
409
420
435
424
446
420
420
380
336
289
193
116
-1
-74
-133
-155
-114
-136
-151
-162
-180
-239
-480
-850
-781
-997
-1601
-1883
-1982
-2015
-1857
-1737
-1520
-1308
-942
-821
-792
-579
-338
-19
87
3
-1
329
333
237
354
380
292
307
234
160
54
-74
-118
-12
-455
-718
-462
-363
-426
-440
-451
-502
-345
-356
-338
-129
-41
116
91
-67
-74
-63
-45
-305
-686
-645
-777
-847
-1008
-1129
-1085
-832
-649
-623
-751
-836
-978
-850
-905
-737
-418
-327
-250
-155
-184
-144
40
219
102
256
387
347
362
256
179
226
-63
-147
-177
-173
-74
-155
-404
-700
-913
-1268
-1209
-850
-371
-144
-524
-616
-458
-415
-272
102
204
-407
-426
-316
-301
-118
-224
-242
135
116
-316
-448
-125
563
223
-111
-96
-898
-1088
-579
-151
497
1303
1640
428
-711
-924
153
-396
-1722
-1165
-433
-107
340
505
838
765
87
-162
-407
-579
-411
-455
-495
-195
311
-74
-539
-294
-231
-1059
-1121
-568
-155
10
73
40
-30
-378
-590
-554
-524
-286
-187
25
-15
-59
201
157
208
296
241
248
325
347
263
175
168
292
256
219
164
105
76
40
58
87
51
40
-15
-144
-275
-385
-568
-891
-1158
-1304
-1433
-1693
-1828
-1920
-1850
-1802
-1755
-1663
-1590
-1422
-1275
-1169
-1044
-902
-814
-689
-532
-396
-136
120
197
204
314
409
662
893
1215
1197
1145
1142
1058
1127
1391
1482
1442
1380
1248
1065
603
47
-151
-81
-184
-100
65
171
-122
-806
-905
-982
-880
-942
-865
-700
-733
-784
-740
-664
-627
-528
-550
-583
-568
-733
-660
-524
-550
-616
-656
-601
-451
-521
-546
-546
-491
-396
-451
-469
-473
-448
-429
-393
-279
-56
-15
10
-59
-151
-239
-239
-264
-283
-316
-301
-283
-231
-279
-396
-396
-367
-426
-433
-480
-513
-477
-371
-114
-455
-528
-363
-667
-678
-583
-484
-590
-598
-612
-136
-8
-85
-642
-1422
-1136
-982
-777
-583
-89
538
164
-1033
-858
-286
-513
-539
-451
-601
-517
-352
-231
-733
-781
-634
-319
296
-264
-817
-1348
-1033
-858
-960
-803
-755
-656
-330
-272
-363
-473
-294
-275
-338
-341
-316
-334
-312
-166
-187
-305
-415
-583
-722
-894
-953
-784
-861
-1059
-1041
-1004
-1011
-1008
-850
-682
-561
-455
-246
-191
-114
-12
83
102
179
354
303
245
252
135
73
-78
-349
-396
-312
-488
-737
-1011
-1191
-1198
-1260
-1290
-1154
-1147
-1224
-1429
-2257
-3040
-3652
-3538
-3139
-2762
-2842
-3476
-3846
-4073
-4113
-3600
-2945
-2473
-2253
-1839
-1832
-1916
-1696
-1217
-601
223
911
1790
2577
3046
3119
3119
2933
2614
2570
2233
2153
2416
2504
2391
2306
2068
1724
1519
1200
1003
940
853
820
984
1113
1131
1017
776
483
322
76
-246
-686
-1114
-1608
-2040
-2260
-2304
-2275
-2341
-2491
-2539
-2568
-2586
-2590
-2517
-2385
-2359
-2242
-2279
-2209
-2044
-1813
-1660
-1729
-1953
-1989
-2000
-1901
-1671
-1623
-1264
-718
-1564
-1956
-1780
-1590
-1539
-1524
-1568
-1656
-1121
-1286
-1586
-1572
-1418
-1129
-653
-773
-715
-697
-455
-1546
-1444
-1184
-978
-444
772
-821
-887
424
-1191
-2495
-2381
-2165
-1718
-1290
-579
-521
-905
-660
-565
-740
-506
142
-37
-887
-444
-513
-572
-521
-616
-535
-458
-382
-316
-228
-140
-114
-155
-100
-59
-67
-144
-37
-30
-59
-118
-162
-129
-114
-140
-12
157
512
1010
593
329
-177
-751
-1491
-2286
-2414
-3044
-5150
57982
58004
58000
57993
58018
57989
58007
57993
57993
58007
57989
57996
57993
58000
58004
58011
57996
57993
58007
58004
-7511
58004
57993
58007
-6116
-3765
-140
3852
7133
7484
7484
7484
7484
7484
7484
7484
7484
7484
7484
7484
7484
7484
7484
7484
7484
7484
7338
6649
6129
5679
5111
4668
4211
3709
3138
2596
2328
2358
2508
2632
2742
2621
2544
2391
2299
2196
2112
2046
1882
1614
1530
1347
1178
922
743
571
560
545
695
688
530
193
-799
-352
-202
-78
-52
-48
-41
-360
-429
-433
-510
-616
-609
-620
-554
-506
-499
-686
-686
-861
-865
-1304
-1740
-1879
-1766
-1784
-1740
-1758
-1722
-1608
-1326
-1158
-997
-627
-371
-81
-30
-89
102
116
127
245
523
757
995
959
658
1014
871
746
823
842
867
816
699
541
464
398
402
428
435
450
607
505
149
516
585
182
-34
76
208
212
215
146
43
138
267
102
-19
-1
113
281
87
-15
-26
91
307
241
530
545
472
285
475
497
424
483
560
1362
508
25
530
607
563
263
98
-404
-773
-847
-708
-825
-1066
-1176
-1407
-2040
-1927
-2432
-3348
-3165
-4534
-7391
58007
58004
58022
57996
58007
58018
57989
57993
58007
57985
57989
58000
58004
57993
58000
58000
58022
58004
58007
58007
58004
58007
58018
58004
57982
-7501
58011
58004
58004
58018
58018
58015
58018
58000
57996
58000
58007
58000
58018
58004
58007
58011
58018
57993
58015
-6915
-5915
-4900
-3641
-2297
-982
376
1325
1874
2497
3471
4427
5108
5829
6393
6584
6712
6851
7177
7484
7484
7484
7484
7484
7484
7484
7484
7484
7484
7484
7484
7484
7484
7484
7484
7484
7484
7484
7484
7484
7484
7484
7484
7484
7484
7484
7484
7484
7484
7484
7484
7484
7484
7473
6316
5390
4764
4449
4024
3163
2149
1296
1336
1449
1083
1468
1845
2109
2347
3105
3921
4189
4361
4518
3694
2581
1676
1197
1197
1087
1358
1197
208
-316
-147
365
728
457
94
-1
-48
-385
-1037
-1011
-1081
-2421
-3161
-2275
-2015
-2517
-3007
-3557
-3176
-3297
-3824
-3787
-3806
-3736
-3289
-2971
-2875
-2817
-2740
-2517
-2388
-2187
-1989
-1726
-1495
-1568
-2198
-2209
-1795
-2297
-2645
-2901
-2414
-2165
-1945
-1868
-1927
-2011
-2008
-1887
-1832
-1865
-2070
-2176
-2300
-2414
-2473
-2498
-2399
-2286
-2048
-1956
-1949
-1934
-2029
-2381
-2443
-2440
-2344
-2169
-2066
-1773
-1722
-2066
-1916
-1817
-1744
-1693
-1623
-1649
-1535
-1363
-1191
-1125
-1114
-1044
-1088
-1052
-1059
-946
-880
-869
-817
-667
-675
-587
-524
-473
-385
-297
-268
-242
-195
-147
-56
91
237
43
131
219
307
325
289
311
270
263
292
303
263
314
424
468
552
567
603
647
622
556
490
420
417
307
241
193
164
80
62
58
76
-118
-70
10
131
54
43
62
91
-63
-111
-70
-184
-195
-257
-268
-308
-305
-235
-272
-404
-415
-246
-378
-286
-312
-415
-396
-458
-488
-305
-378
-305
-426
-319
-404
-675
-590
-407
-385
-279
-166
-162
-147
-283
-283
-253
-147
-239
-378
-180
-382
-437
-389
-484
-576
-711
-891
-1070
-1271
-1385
-1685
-2176
-2634
-3157
-3743
-4124
-4915
-5673
-6266
-6797
57993
58022
58007
58022
58018
58004
58015
58007
57989
57996
58018
58004
58022
58018
58015
58015
57993
-5955
-2652
823
3606
6836
7484
7484
7484
7484
7484
7484
7484
7484
7063
5932
4756
3632
2596
1383
3
-1030
-1905
-2901
-3619
-4051
-4476
-5128
-5406
-5406
-5402
-5541
-5768
-5995
-5582
-6054
-6775
-7482
-7508
58015
58015
58007
58011
58007
58007
57985
58011
58000
58004
58007
-7511
57989
58007
-6706
-6222
-5834
-5962
-5816
-5655
-5384
-5051
-4820
-4677
-4465
-3853
-3311
-3044
-2700
-2348
-2059
-1780
-1531
-1217
-1037
-887
-568
-404
-235
-1
237
640
1032
1340
1482
1578
1559
1977
2500
2936
3548
4412
5295
6214
7180
7484
7484
7484
7484
7484
7484
7484
7484
7484
7484
7484
7484
7484
7484
7484
7484
7484
7484
7484
7484
7484
7484
7484
7484
6811
5858
5086
4265
3291
2354
1735
1105
574
417
567
508
512
479
153
58
483
567
76
226
999
1629
2101
2420
2380
2636
2944
3075
3178
2698
2065
1768
1475
838
611
545
307
285
314
-140
-469
-711
-1096
-535
-400
-711
-1011
-964
-1231
-1638
-1835
-1916
-1846
-1868
-2136
-1700
-978
-1583
-1619
-1213
-957
-773
-788
-865
-1008
-1187
-1385
-1176
-400
-1129
-1975
-1323
-1066
-832
-975
-1612
-1385
-949
-740
-451
-220
-92
43
87
116
318
318
318
237
190
267
263
182
208
248
340
300
182
234
237
234
278
245
168
102
47
18
47
-52
-96
-184
-231
-268
-411
-484
-532
-345
-301
-415
-469
-473
-458
-495
-458
-532
-521
-528
-678
-627
-543
-437
-568
-469
-356
-418
-462
-455
-451
-440
-396
-444
-469
-448
-484
-469
-473
-539
-480
-513
-466
-319
-250
-177
-275
-246
-242
-308
-257
-242
-246
-250
-74
-15
-70
-67
32
116
113
248
296
424
424
351
347
369
259
281
314
256
325
409
343
351
322
373
270
256
256
138
204
365
340
358
479
585
614
505
574
486
457
519
508
512
472
523
629
658
541
457
314
116
21
212
541
105
-455
-305
-118
-12
21
-96
-202
-213
-404
-462
-499
-660
-543
-587
-740
-1052
-1176
-1202
-1334
-1326
-1557
-1788
-2099
-2443
-2784
-3102
-3564
-3996
-4315
-4684
-5040
-5245
-4981
-4769
-4366
-4172
-4348
-4022
-3952
-3362
-1524
721
2508
3639
4236
4562
5005
5349
5580
5719
5851
5994
5884
5730
5595
5412
5093
5056
5100
4650
3691
3171
3350
3464
3042
2698
2259
1739
1010
292
-740
-2326
-4567
-5911
-7237
-7508
-7365
-7076
-7035
-7156
-7486
-7361
-6896
-6468
-6439
-6417
-5930
-5318
-4999
-4787
-4886
-4798
-4556
-4853
-4926
-4333
-3740
-3271
-2949
-2604
-2333
-2051
-1802
-1498
-1202
-894
-693
-239
219
446
673
1091
1618
2101
2508
2749
3035
3544
4046
4698
5086
5111
5258
5591
5902
5946
5771
5617
5609
5705
5507
5232
5152
5093
5126
4866
4482
4057
4013
4093
3921
3687
3449
3053
2691
2585
2262
1618
1640
1497
1391
1446
1274
1134
1025
1189
1424
1486
1519
1468
1537
1827
2303
2358
2277
2603
3214
3211
2497
2218
1951
1874
1947
2229
2625
2592
2292
1369
896
1175
992
735
853
728
527
527
311
-202
-231
98
318
7
-594
-781
-590
-396
-341
-645
-1583
-2128
-1964
-1224
-854
-865
-1092
-1213
-1238
-1224
-978
-913
-924
-1000
-1026
-847
-700
-550
-513
-488
-466
-488
-550
-656
-469
-451
-319
-513
-766
-938
-931
-810
-649
-631
-638
-554
-539
-561
-407
-422
-451
-429
-499
-605
-689
-598
-572
-583
-660
-609
-631
-693
-744
-803
-861
-975
-1066
-1081
-1099
-1070
-1092
-1085
-982
-909
-854
-759
-751
-751
-781
-759
-729
-667
-634
-795
-832
-858
-957
-968
-1041
-1125
-1162
-1224
-1271
-1341
-1480
-1520
-1553
-1612
-1594
-1568
-1612
-1539
-1469
-1542
-1436
-1301
-1224
-1099
-891
-729
-623
-327
-206
-19
-63
-30
83
164
226
168
201
248
303
270
274
274
307
395
387
318
259
307
358
333
237
171
146
168
215
208
43
-107
-63
36
62
-34
-103
-96
-92
-67
-191
-74
-4
-37
-48
-23
14
-78
-155
-92
-114
-118
-26
3
-8
18
-74
-180
-70
-70
-177
-202
-279
-294
-279
-202
-184
-198
-250
-224
-268
-187
-158
-283
-546
-612
-521
-568
-583
-499
-528
-539
-605
-623
-510
-543
-539
-539
-587
-708
-675
-759
-887
-1319
-1623
-1953
-2216
-2681
-2809
-3011
-3099
-3410
-3403
-3469
-3758
-4131
-4457
-4915
-5036
-4922
-4747
-4186
-3589
-3018
-2897
-2919
-2802
-2626
-2399
-1993
-1846
-1715
-1513
-1301
-1052
-832
-1008
-1213
-968
-777
-473
21
600
1398
2013
2347
2958
3453
3485
3467
3650
3628
3383
3225
3156
3035
2826
2577
1999
1072
237
-660
-1509
-2136
-2707
-3113
-3234
-3121
-3066
-3066
-3051
-2799
-2560
-1455
-264
545
1321
1010
-100
-1586
-3762
-5073
-5523
-5483
-5190
-4706
-3875
-2586
-1912
-1828
-1971
-1949
-1557
-957
-305
102
614
937
1039
1424
1757
2277
2815
3405
4020
4441
4804
5166
5609
6107
6221
6053
5822
5551
5152
4599
4617
4789
4789
4335
3881
3562
3562
3606
3705
3885
3888
3896
3815
3526
3485
3357
3152
2973
2933
2947
3009
3020
3094
2852
2310
1977
1750
1742
1303
732
966
1241
1215
1563
1783
1731
1852
2145
2281
2251
1501
552
376
43
-451
-660
-773
-660
-491
-546
-506
-393
-598
-876
-913
-850
-649
-513
5335
5097
4877
4731
4452
4353
4152
3973
3885
3797
3943
4181
4467
4522
4511
4456
4339
4145
3991
3866
3749
3639
3460
3273
3138
2965
2830
2687
2533
2475
2416
2325
2226
2109
1962
1929
1830
1764
1691
1581
644
578
563
571
486
486
483
505
505
490
453
413
424
398
351
336
351
391
307
303
362
384
387
409
395
325
354
365
351
384
413
362
278
281
307
307
296
245
248
296
285
278
303
314
329
303
285
259
131
175
197
267
138
-323
-605
-609
-484
-308
-144
18
153
190
285
303
311
373
413
402
409
175
-111
-209
-250
-166
-202
-162
-253
-385
-448
-539
-484
-491
-448
-418
-411
-301
-224
-155
-103
-56
-19
-45
-23
-1
47
62
135
164
21
73
116
40
58
73
113
127
215
263
146
91
18
-103
-209
-184
-283
-224
-275
-209
-191
-158
-125
-140
-74
-4
47
98
120
51
94
-228
-616
-770
-770
-777
-792
-773
-748
-697
-609
-568
-462
-422
-283
-202
-224
-8
127
120
153
102
149
73
40
-100
-323
-711
-1136
-1231
-1217
-1297
-1378
-1381
-1407
-1378
-1400
-1367
-1337
-1414
-1458
-1502
-1491
-1513
-1498
-1411
-1235
-1143
-1030
-905
-880
-795
-803
-814
-810
-854
-869
-784
-737
-726
-704
-704
-678
-810
-880
-924
-1037
-1103
-1184
-1231
-1206
-1224
-1118
-1099
-1121
-1059
-942
-905
-839
-817
-792
-773
-656
-539
-360
-173
62
439
809
1314
1991
2944
3577
4075
4848
6818
7484
7484
7484
7484
7484
7484
7484
6704
5503
4785
3980
3288
2900
2303
1640
926
505
259
545
563
237
-15
-341
-653
-828
-909
-803
-718
-704
-821
-916
-946
-1004
-854
-766
-759
-631
-726
-949
-1008
-978
-806
-499
18
-45
-400
-675
-748
-781
-1187
-1356
-1422
-1422
-968
-15
673
1534
3376
4064
6181
7484
7484
7484
7484
7484
7484
7484
7484
7484
7484
7484
7484
7484
7484
7484
7484
7484
7484
7484
7484
7484
7484
7484
7484
7484
7484
7484
7484
7484
7155
5067
4753
5767
7224
7484
7484
7484
7484
7484
6247
6433
5906
6891
6331
6873
6151
3830
2764
3914
3489
2504
1351
1047
922
1442
1281
673
296
73
131
-202
-283
-239
241
505
80
-187
-63
-1363
-2070
-2132
-2495
-3853
-5680
58007
58022
58004
57993
58007
57989
57993
58018
-1473
3002
4471
7484
7484
7484
7484
7484
7484
7484
7484
7484
7484
3511
-6940
58000
57996
58015
58018
57993
58004
58007
380
7484
7484
7484
7484
7484
7484
7484
7484
7484
7484
7484
7484
7484
7484
7484
7484
7484
5910
2420
-1480
-5237
58015
58007
57985
58022
-6211
-4959
-3091
-1279
483
1951
2870
3526
4533
5320
5232
4441
3504
2738
2167
1255
505
-151
-858
-1224
-1271
-1275
-1290
-1070
-836
-708
-722
-686
-535
-484
-788
-444
-12
146
212
278
369
98
-177
-557
-697
-946
-986
-1004
-949
-1162
-1140
-905
-744
-872
-788
-880
-1165
-1480
-1890
-2689
-4582
-6248
-6926
-7028
-7098
-7295
58011
57993
58011
58018
58000
58000
57996
58000
58000
58018
-7511
58004
58015
57985
58004
58000
58007
58011
58018
58018
58018
57993
58007
58004
58015
-7511
57993
58015
58004
58000
58007
57985
58011
57982
-5805
57993
58015
-7511
58011
58015
58004
58015
-7504
58007
58000
58007
58007
-7511
57996
58000
58007
58011
58007
58018
58018
58007
-7511
57993
58004
58000
58015
57996
58000
-7511
57993
58000
58007
58011
58011
57993
-5281
-3432
-2795
-3604
-4058
-4468
-3641
-4161
-5593
-4560
-3179
-2161
-1513
-957
-209
402
1285
981
406
18
-627
-883
-620
-158
-261
-1000
-1260
-1081
-1484
-795
-316
80
1138
1471
1530
1244
629
-78
-155
263
-448
-927
-821
-953
-1616
-1630
-517
-184
739
1200
984
1197
1160
329
571
607
593
365
384
343
1310
1405
1424
1559
1958
2251
2013
1999
1270
783
922
933
65
-389
-825
-1158
-1348
-1173
-726
-136
684
1127
1266
1061
618
787
1025
878
505
417
175
-30
-177
-34
329
728
1676
2240
2885
3116
2680
2292
1966
2032
2054
2094
2098
1728
1219
1325
717
270
252
-67
-715
-876
-1162
-2081
-2689
-3048
-3231
-3615
-4179
-4263
-4626
-4274
-3967
-3319
-2242
-1451
-1114
-1052
-1469
-1575
-1271
-850
-4
926
1962
2815
3141
3090
3090
3636
5287
6422
6225
5536
4302
3445
2643
1933
1464
567
-546
-957
-1546
-1279
-202
1885
3745
5346
5756
5401
4203
3053
2328
1563
541
-458
-1634
-2341
-3037
-3326
-2923
-2348
-1323
-675
-550
-502
-1154
-1832
-2180
-2315
-2238
-2136
-2403
-2517
-2956
-2502
-1601
-543
1314
2460
2724
2489
1175
25
-686
-1246
-2004
-2681
-3340
-3520
-4066
-3509
-2359
-1118
999
2332
2610
2431
981
-187
-847
-1381
-2139
-2751
-3425
-3630
-4179
-3509
-2099
-587
1871
3361
3705
3405
1684
226
-554
-1198
-2044
-2703
-3469
-3751
-4380
-3648
-2092
-480
2251
3980
4449
4082
2120
446
-469
-1085
-2062
-2927
-3864
-4135
-4710
-3882
-2183
-319
2705
4632
5130
4738
2544
724
-345
-1022
-2110
-3018
-4014
-4296
-5076
-4157
-2249
-213
3222
5309
5902
5562
3116
1039
-107
-909
-2095
-3139
-4263
-4651
-5457
-4421
-2326
-67
3738
6056
6609
6162
3412
1127
-118
-924
-2216
-3443
-4626
-4999
-5783
-4575
-2311
186
4452
6979
7484
6957
3958
1464
91
-913
-2399
-3666
-5032
-5450
-6387
-5124
-2692
54
4672
7484
7484
7484
4353
1581
164
-927
-2568
-4000
-5435
-5875
-6794
-5450
-2535
589
5624
7484
7484
7484
5382
2215
380
-861
-2656
-4241
-5933
-6526
58018
-6193
-3227
83
5708
7484
7484
7484
5349
1958
-26
-1260
-2993
-4483
-6131
-6471
58011
-6006
-2619
838
6638
7484
7484
7484
5738
2204
179
-1107
-3205
-4999
-6988
58000
58018
-6878
-3622
116
6382
7484
7484
7484
5595
1951
-107
-1524
-3648
-5490
-7453
58011
58007
-7021
-3736
230
6723
7484
7484
7484
5932
2098
76
-799
-2744
-4662
-6845
58004
58000
-6493
-2773
1200
7484
7484
7484
7484
6302
2427
76
-1583
-3948
-5984
58011
58004
58004
-6559
-2553
1980
7484
7484
7484
7484
4496
545
-1542
-2802
-4586
-5937
-7193
-7076
58004
-5113
-1030
2651
7484
7484
7484
7484
5598
1362
-1103
-2634
-5084
-7255
58015
58007
58015
58007
-4435
98
7484
7484
7484
7484
6510
2369
-129
-1887
-4505
-6823
58007
58018
58004
58007
-4267
402
7484
7484
7484
7484
6690
2596
-74
-1898
-4655
-6991
58000
58004
57993
58007
-4391
336
7484
7484
7484
7484
6763
2445
-155
-2048
-4743
-7215
58015
58018
58007
58000
-4549
365
7484
7484
7484
7484
6745
2405
-352
-2158
-4875
-7332
58007
57993
58000
57993
-4439
347
7484
7484
7484
7484
6756
2456
-202
-2099
-4846
-7365
58000
58018
58000
57993
-4461
380
7484
7484
7484
7484
6759
2445
-246
-2165
-4981
-7427
57993
58022
57978
57993
-4523
402
7484
7484
7484
7484
6693
2361
-499
-2363
-5043
58007
58015
58007
58011
-7427
58018
-4597
380
7484
7484
7484
7484
6704
2266
-426
-2341
-5109
58007
57993
58011
57993
58007
-4465
406
7484
7484
7484
7484
6631
2262
-462
-2260
-5010
-7468
58000
57993
58004
58015
-4359
505
7484
7484
7484
7484
6635
2160
-671
-2425
-5117
58004
58007
58015
57978
57996
-4556
285
7484
7484
7484
7484
6441
1995
-682
-2443
-5139
58011
58007
58011
58000
58015
-4359
505
7484
7484
7484
7484
6452
1896
-667
-2487
-5241
58007
58015
58004
58015
58007
-4326
516
7484
7484
7484
7484
6408
1980
-697
-2473
-5157
58015
58007
58007
58007
57993
-4315
530
7484
7484
7484
7484
6375
1830
-810
-2630
-5256
57993
58011
57989
58015
57993
-4527
245
7484
7484
7484
7484
5727
812
-1568
-3308
-6050
58004
58018
57974
58011
58000
-5102
-400
7484
7484
7484
7484
4676
-334
-3121
-4670
-7164
58007
58018
58000
58000
58011
-5219
-363
7484
7484
7484
7484
5602
721
-1982
-3663
-6244
58018
58007
58004
58004
57993
-4662
73
7484
7484
7484
7484
5815
1156
-1433
-3179
-5787
58004
58000
57993
58000
58018
-4439
362
7484
7484
7484
7484
5393
417
-2451
-4135
-6684
57996
57978
-7511
58007
58000
-4890
-92
7484
7484
7484
7484
5598
574
-2125
-3696
-6241
58000
58004
57996
-7511
58004
-4633
215
7484
7484
7484
7484
5800
1277
-1257
-2982
-5611
58018
58018
58018
58015
58011
-4153
684
7484
7484
7484
7484
6045
1479
-1103
-2897
-5486
57996
57993
58007
58018
58000
-4135
684
7484
7484
7484
7484
6228
1589
-1217
-2886
-5431
58000
58015
58015
58004
58018
-4146
757
7484
7484
7484
7484
6144
1534
-1136
-2802
-5431
57993
58011
58011
57996
-7511
-4146
779
7484
7484
7484
7484
6217
1526
-1037
-2707
-5344
58004
58004
58004
57993
58004
-3992
878
7484
7484
7484
7484
6239
1706
-1015
-2685
-5263
58011
58018
58000
57993
58007
-4088
937
7484
7484
7484
7484
6071
1479
-1107
-2824
-5490
58000
58011
58018
58004
58011
-3981
878
7484
7484
7484
7484
6217
1658
-1055
-2784
-5483
58022
58011
57989
58022
58007
-4073
798
7484
7484
7484
7484
6225
1618
-1096
-2850
-5549
58004
57989
58007
57993
58011
-4146
834
7484
7484
7484
7484
6364
1625
-1158
-2846
-5560
58022
58004
58011
58004
57989
-4051
882
7484
7484
7484
7484
6203
1570
-1173
-2861
-5567
57993
58004
58015
58018
58011
-4040
904
7484
7484
7484
7484
6225
1589
-1140
-2897
-5651
58007
58018
58004
-7511
57989
-4077
933
7484
7484
7484
7484
6309
1578
-1271
-2934
-5651
57993
58015
58022
57993
58015
-4047
981
7484
7484
7484
7484
6272
1618
-1165
-2897
-5604
58007
58004
57993
58007
58000
-4055
970
7484
7484
7484
7484
6367
1687
-1176
-2923
-5611
58007
58004
58011
58000
57996
-4062
896
7484
7484
7484
7484
6283
1640
-1110
-2938
-5648
57993
57989
58015
58015
58022
-4062
955
7484
7484
7484
7484
6309
1713
-1147
-2938
-5670
58011
58004
57993
-7511
58007
-4157
907
7484
7484
7484
7484
6415
1673
-1242
-2938
-5582
58011
58011
58007
58018
58018
-4131
937
7484
7484
7484
7484
6364
1658
-1077
-2850
-5622
58011
58015
58011
58007
58018
-4080
940
7484
7484
7484
7484
6448
1687
-1085
-2919
-5615
58011
58000
58011
58018
58011
-4172
893
7484
7484
7484
7484
6437
1695
-1140
-2908
-5604
58007
57993
58007
57993
58007
-4252
896
7484
7484
7484
7484
6415
1746
-1066
-2872
-5670
57996
57993
58015
58015
58004
-3992
863
7484
7484
7484
7484
6441
1761
-1044
-2850
-5618
58011
57993
57989
58000
58015
-4106
878
7484
7484
7484
7484
6448
1772
-1070
-2828
-5538
58015
58011
58015
57993
57996
-4223
973
7484
7484
7484
7484
6529
1797
-1110
-2806
-5545
57993
58007
57993
58004
57993
-4201
845
7484
7484
7484
7484
6400
1713
-964
-2824
-5596
57996
57985
58007
57993
58000
-4212
900
7484
7484
7484
7484
6481
1779
-1055
-2875
-5585
58000
57985
58007
57993
58004
-4135
907
7484
7484
7484
7484
6529
1801
-1140
-2927
-5688
58018
58007
57993
58015
57996
-4216
834
7484
7484
7484
7484
6459
1797
-1085
-2868
-5578
58011
58007
57985
58000
58011
-4157
867
7484
7484
7484
7484
6430
1757
-1125
-2842
-5629
58007
58011
58011
58022
58011
-4179
882
7484
7484
7484
7484
6463
1816
-1052
-2850
-5556
58004
58018
-7511
-7511
57993
-4282
805
7484
7484
7484
7484
6400
1775
-997
-2831
-5552
58007
58007
58022
58018
58007
-4150
842
7484
7484
7484
7484
6459
1775
-1011
-2729
-5446
58022
57993
57993
58018
57996
-4172
794
7484
7484
7484
7484
6459
1779
-1011
-2773
-5556
-7511
57993
58004
58007
58007
-4296
765
7484
7484
7484
7484
6474
1863
-887
-2707
-5420
57989
58000
58007
58004
58022
-4216
794
7484
7484
7484
7484
6463
1779
-942
-2842
-5486
-7511
58007
57996
57996
58022
-4285
809
7484
7484
7484
7484
6507
1801
-957
-2751
-5475
58000
58007
58007
58007
58018
-4164
801
7484
7484
7484
7484
6474
1808
-971
-2769
-5420
58000
58007
-7511
58015
58004
-4249
779
7484
7484
7484
7484
6492
1827
-938
-2755
-5442
57996
58022
57993
58007
58011
-4219
827
7484
7484
7484
7484
6510
1841
-902
-2777
-5435
58011
58007
58015
58004
58007
-4267
790
7484
7484
7484
7484
6521
1841
-1030
-2784
-5450
58015
58007
58000
58015
58011
-4256
776
7484
7484
7484
7484
6470
1863
-880
-2740
-5402
58007
57989
58007
58011
58018
-4230
779
7484
7484
7484
7484
6477
1801
-927
-2744
-5486
58007
58011
58007
58007
58007
-4267
750
7484
7484
7484
7484
6507
1852
-935
-2751
-5406
58015
58004
58000
58015
58007
-4260
772
7484
7484
7484
7484
6448
1801
-993
-2766
-5388
57993
58015
58011
58007
58015
-4271
838
7484
7484
7484
7484
6459
1852
-909
-2762
-5362
58007
58011
58015
58018
58004
-4223
750
7484
7484
7484
7484
6463
1904
-902
-2707
-5340
58007
58011
-7511
58011
58018
-4164
845
7484
7484
7484
7484
6580
1984
-821
-2656
-5263
58004
57993
58011
58007
58011
-4183
746
7484
7484
7484
7484
6518
1863
-891
-2681
-5355
58018
58011
58022
58007
58007
-4267
750
7484
7484
7484
7484
6543
1893
-949
-2773
-5358
58011
58000
58004
57993
57993
-4318
647
7484
7484
7484
7484
6485
1904
-869
-2648
-5333
58000
58004
58000
58004
58007
-4282
746
7484
7484
7484
7484
6529
1896
-927
-2718
-5373
57993
57978
58022
57993
57993
-4131
673
7484
7484
7484
7484
6481
1834
-968
-2769
-5377
58011
58007
-7511
58007
-7511
-4351
673
7484
7484
7484
7484
6547
1933
-872
-2696
-5369
57993
58004
58015
57993
58018
-4359
658
7484
7484
7484
7484
6536
1896
-876
-2718
-5340
57993
58000
58007
58007
58000
-4326
743
7484
7484
7484
7484
6536
1856
-898
-2689
-5373
58015
58004
58004
58007
58011
-4432
651
7484
7484
7484
7484
6646
1936
-957
-2755
-5329
57993
58011
58007
57993
58007
-4417
611
7484
7484
7484
7484
6532
1874
-891
-2681
-5358
58007
58000
58011
58007
58007
-4333
673
7484
7484
7484
7484
6551
1962
-894
-2703
-5351
58000
57993
58007
57996
57996
-4370
647
7484
7484
7484
7484
6543
1882
-927
-2689
-5307
58011
58011
58022
58000
58015
-4424
655
7484
7484
7484
7484
6547
1922
-905
-2681
-5329
58004
58011
57993
58000
58022
-4326
658
7484
7484
7484
7484
6518
1936
-817
-2659
-5347
58018
58007
57993
58011
58011
-4311
662
7484
7484
7484
7484
6573
1955
-850
-2663
-5377
58004
57993
58015
58015
57993
-4300
636
7484
7484
7484
7484
6664
1951
-968
-2736
-5406
58011
-7511
58015
58018
58018
-4351
625
7484
7484
7484
7484
6536
1955
-777
-2560
-5212
-7504
58015
57996
58004
58015
-4384
636
7484
7484
7484
7484
6518
1933
-865
-2645
-5256
58007
58015
57993
58000
58011
-4344
629
7484
7484
7484
7484
6591
1951
-821
-2634
-5215
-7438
58007
57993
58015
58018
-4278
585
7484
7484
7484
7484
6525
1893
-869
-2641
-5267
58022
58007
58011
58007
57993
-4307
629
7484
7484
7484
7484
6602
1955
-858
-2641
-5322
-7490
58004
57985
58015
57993
-4373
582
7484
7484
7484
7484
6580
1944
-865
-2656
-5248
-7486
58022
58004
57993
58022
-4366
622
7484
7484
7484
7484
6521
1900
-839
-2619
-5263
-7471
57996
58018
57989
58015
-4289
629
7484
7484
7484
7484
6551
1914
-799
-2597
-5303
-7490
58007
57989
58011
58007
-4355
589
7484
7484
7484
7484
6587
1966
-953
-2674
-5311
-7486
58011
58015
58011
58000
-4337
607
7484
7484
7484
7484
6562
1918
-803
-2623
-5208
-7372
57989
-7511
58015
58007
-4362
534
7484
7484
7484
7484
6576
1947
-924
-2630
-5241
-7431
57982
58011
58007
57993
-4351
589
7484
7484
7484
7484
6503
1907
-817
-2619
-5234
-7409
58004
-7511
58018
-7504
-4450
593
7484
7484
7484
7484
6356
1980
-795
-2623
-5212
-7394
58011
58004
58022
57978
-4318
560
7484
7484
7484
7484
6551
1980
-803
-2571
-5201
-7365
58007
57989
58007
58004
-4337
578
7484
7484
7484
7484
6540
1947
-825
-2645
-5197
-7369
57985
58004
57985
57993
-4340
578
7484
7484
7484
7484
6540
1951
-784
-2571
-5182
-7361
58011
57993
58018
58011
-4399
541
7484
7484
7484
7484
6503
1951
-836
-2619
-5234
-7380
58015
58004
58004
58018
-4413
574
7484
7484
7484
7484
6609
2043
-814
-2623
-5215
-7361
58000
58015
58004
58011
-4194
582
7484
7484
7484
7484
6565
1955
-836
-2597
-5201
-7369
58018
58011
58007
58011
-4399
534
7484
7484
7484
7484
6547
1969
-810
-2579
-5259
-7391
58004
58000
58018
57996
-4377
541
7484
7484
7484
7484
6562
1991
-781
-2593
-5212
-7391
58011
58004
57993
58018
-4359
556
7484
7484
7484
7484
6529
1951
-777
-2590
-5153
-7347
58015
58011
58018
58018
-4362
538
7484
7484
7484
7484
6638
2010
-803
-2593
-5153
-7303
58000
-7508
58007
-7508
-4366
523
7484
7484
7484
7484
6551
1918
-781
-2579
-5182
-7262
58011
57993
58007
58015
-4304
545
7484
7484
7484
7484
6584
1977
-777
-2608
-5197
-7303
58011
58000
58015
57985
-4326
479
7484
7484
7484
7484
6609
2006
-913
-2652
-5124
-7259
58011
57993
58011
58007
-4333
545
7484
7484
7484
7484
6488
1929
-792
-2564
-5113
-7244
58007
58004
58000
58004
-4337
519
7484
7484
7484
7484
6360
1918
-792
-2593
-5102
-7226
58007
57996
58000
58007
-4274
494
7484
7484
7484
7484
6536
1955
-759
-2509
-5047
-7233
58000
57993
-7511
57993
-4351
516
7484
7484
7484
7484
6551
1995
-773
-2513
-5032
-7178
58018
58000
57993
58000
-4322
472
7484
7484
7484
7484
6470
1929
-773
-2539
-5084
-7160
58004
58022
58004
57985
-4285
505
7484
7484
7484
7484
6452
1914
-773
-2520
-5036
-7160
58000
58018
57989
58007
-4329
475
7484
7484
7484
7484
6463
1936
-795
-2531
-5087
-7178
58015
57996
57996
57993
-4205
545
7484
7484
7484
7484
6492
2013
-700
-2462
-5025
-7109
58011
57978
58007
57996
-4315
523
7484
7484
7484
7484
6448
1940
-759
-2487
-5036
-7087
58007
58004
58022
58000
-4252
541
7484
7484
7484
7484
6459
1969
-686
-2447
-4988
-7065
58004
58004
58007
58007
-4296
512
7484
7484
7484
7484
6441
1922
-715
-2491
-4977
-7065
58007
58007
58018
57993
-4256
527
7484
7484
7484
7484
6492
1947
-751
-2498
-5018
-7098
58007
58007
58004
